Time,1,2,3,4,5
0.000000000,32767.000000,914.000000,191.000000,234.500000,0.000000
0.004000000,32767.000000,,,,
0.008000000,32767.000000,,,,
0.012000000,32767.000000,,,,
0.016000000,32767.000000,,,,
0.020000000,32767.000000,,,,
0.024000000,32767.000000,,,,
0.028000000,32767.000000,,,,
0.032000000,32767.000000,,,,
0.036000000,32767.000000,,,,
0.040000000,32767.000000,912.000000,140.500000,195.500000,
0.044000000,32767.000000,,,,
0.048000000,32767.000000,,,,
0.052000000,32767.000000,,,,
0.056000000,32767.000000,,,,
0.060000000,32767.000000,,,,
0.064000000,32767.000000,,,,
0.068000000,32767.000000,,,,
0.072000000,32767.000000,,,,
0.076000000,32767.000000,,,,
0.080000000,32767.000000,861.000000,99.500000,209.000000,
0.084000000,32767.000000,,,,
0.088000000,32767.000000,,,,
0.092000000,32767.000000,,,,
0.096000000,32767.000000,,,,
0.100000000,32767.000000,,,,
0.104000000,32767.000000,,,,
0.108000000,32767.000000,,,,
0.112000000,32767.000000,,,,
0.116000000,32767.000000,,,,
0.120000000,32767.000000,902.000000,179.500000,258.000000,
0.124000000,32767.000000,,,,
0.128000000,32767.000000,,,,
0.132000000,32767.000000,,,,
0.136000000,32767.000000,,,,
0.140000000,32767.000000,,,,
0.144000000,32767.000000,,,,
0.148000000,32767.000000,,,,
0.152000000,32767.000000,,,,
0.156000000,32767.000000,,,,
0.160000000,32767.000000,890.500000,76.000000,311.000000,
0.164000000,32767.000000,,,,
0.168000000,32767.000000,,,,
0.172000000,32767.000000,,,,
0.176000000,32767.000000,,,,
0.180000000,32767.000000,,,,
0.184000000,32767.000000,,,,
0.188000000,32767.000000,,,,
0.192000000,32767.000000,,,,
0.196000000,32767.000000,,,,
0.200000000,32767.000000,896.000000,164.000000,291.500000,
0.204000000,32767.000000,,,,
0.208000000,32767.000000,,,,
0.212000000,32767.000000,,,,
0.216000000,32767.000000,,,,
0.220000000,32767.000000,,,,
0.224000000,32767.000000,,,,
0.228000000,32767.000000,,,,
0.232000000,32767.000000,,,,
0.236000000,32767.000000,,,,
0.240000000,32767.000000,906.000000,166.000000,281.500000,
0.244000000,32767.000000,,,,
0.248000000,32767.000000,,,,
0.252000000,32767.000000,,,,
0.256000000,32767.000000,,,,
0.260000000,32767.000000,,,,
0.264000000,32767.000000,,,,
0.268000000,32767.000000,,,,
0.272000000,32767.000000,,,,
0.276000000,32767.000000,,,,
0.280000000,32767.000000,898.000000,160.000000,281.500000,
0.284000000,32767.000000,,,,
0.288000000,32767.000000,,,,
0.292000000,32767.000000,,,,
0.296000000,32767.000000,,,,
0.300000000,32767.000000,,,,
0.304000000,32767.000000,,,,
0.308000000,32767.000000,,,,
0.312000000,32767.000000,,,,
0.316000000,32767.000000,,,,
0.320000000,32767.000000,896.000000,166.000000,289.500000,
0.324000000,32767.000000,,,,
0.328000000,32767.000000,,,,
0.332000000,32767.000000,,,,
0.336000000,32767.000000,,,,
0.340000000,32767.000000,,,,
0.344000000,32767.000000,,,,
0.348000000,32767.000000,,,,
0.352000000,32767.000000,,,,
0.356000000,32767.000000,,,,
0.360000000,32767.000000,898.000000,169.500000,295.000000,
0.364000000,32767.000000,,,,
0.368000000,32767.000000,,,,
0.372000000,32767.000000,,,,
0.376000000,32767.000000,,,,
0.380000000,32767.000000,,,,
0.384000000,32767.000000,,,,
0.388000000,32767.000000,,,,
0.392000000,32767.000000,,,,
0.396000000,32767.000000,,,,
0.400000000,32767.000000,865.000000,187.500000,281.500000,
0.404000000,32767.000000,,,,
0.408000000,32767.000000,,,,
0.412000000,32767.000000,,,,
0.416000000,32767.000000,,,,
0.420000000,32767.000000,,,,
0.424000000,32767.000000,,,,
0.428000000,32767.000000,,,,
0.432000000,32767.000000,,,,
0.436000000,32767.000000,,,,
0.440000000,32767.000000,1171.500000,99.500000,408.500000,
0.444000000,32767.000000,,,,
0.448000000,32767.000000,,,,
0.452000000,32767.000000,,,,
0.456000000,32767.000000,,,,
0.460000000,32767.000000,,,,
0.464000000,32767.000000,,,,
0.468000000,32767.000000,,,,
0.472000000,32767.000000,,,,
0.476000000,32767.000000,,,,
0.480000000,32767.000000,986.000000,62.500000,299.000000,
0.484000000,32767.000000,,,,
0.488000000,32767.000000,,,,
0.492000000,32767.000000,,,,
0.496000000,32767.000000,,,,
0.500000000,32767.000000,,,,
0.504000000,32767.000000,,,,
0.508000000,32767.000000,,,,
0.512000000,32767.000000,,,,
0.516000000,32767.000000,,,,
0.520000000,32767.000000,994.000000,225.000000,268.000000,
0.524000000,32767.000000,,,,
0.528000000,32767.000000,,,,
0.532000000,32767.000000,,,,
0.536000000,32767.000000,,,,
0.540000000,32767.000000,,,,
0.544000000,32767.000000,,,,
0.548000000,32767.000000,,,,
0.552000000,32767.000000,,,,
0.556000000,32767.000000,,,,
0.560000000,32767.000000,1001.500000,268.000000,236.500000,
0.564000000,32767.000000,,,,
0.568000000,32767.000000,,,,
0.572000000,32767.000000,,,,
0.576000000,32767.000000,,,,
0.580000000,32767.000000,,,,
0.584000000,32767.000000,,,,
0.588000000,32767.000000,,,,
0.592000000,32767.000000,,,,
0.596000000,32767.000000,,,,
0.600000000,32767.000000,978.500000,252.000000,193.500000,
0.604000000,32767.000000,,,,
0.608000000,32767.000000,,,,
0.612000000,32767.000000,,,,
0.616000000,32767.000000,,,,
0.620000000,32767.000000,,,,
0.624000000,32767.000000,,,,
0.628000000,32767.000000,,,,
0.632000000,32767.000000,,,,
0.636000000,32767.000000,,,,
0.640000000,32767.000000,947.000000,273.500000,180.000000,
0.644000000,32767.000000,,,,
0.648000000,32767.000000,,,,
0.652000000,32767.000000,,,,
0.656000000,32767.000000,,,,
0.660000000,32767.000000,,,,
0.664000000,32767.000000,,,,
0.668000000,32767.000000,,,,
0.672000000,32767.000000,,,,
0.676000000,32767.000000,,,,
0.680000000,32767.000000,937.500000,297.000000,178.000000,
0.684000000,32767.000000,,,,
0.688000000,32767.000000,,,,
0.692000000,32767.000000,,,,
0.696000000,32767.000000,,,,
0.700000000,32767.000000,,,,
0.704000000,32767.000000,,,,
0.708000000,32767.000000,,,,
0.712000000,32767.000000,,,,
0.716000000,32767.000000,,,,
0.720000000,32767.000000,927.500000,311.000000,172.000000,
0.724000000,32767.000000,,,,
0.728000000,32767.000000,,,,
0.732000000,32767.000000,,,,
0.736000000,32767.000000,,,,
0.740000000,32767.000000,,,,
0.744000000,32767.000000,,,,
0.748000000,32767.000000,,,,
0.752000000,32767.000000,,,,
0.756000000,32767.000000,,,,
0.760000000,32767.000000,917.500000,309.000000,164.500000,
0.764000000,32767.000000,,,,
0.768000000,32767.000000,,,,
0.772000000,32767.000000,,,,
0.776000000,32767.000000,,,,
0.780000000,32767.000000,,,,
0.784000000,32767.000000,,,,
0.788000000,32767.000000,,,,
0.792000000,32767.000000,,,,
0.796000000,32767.000000,,,,
0.800000000,32767.000000,927.500000,303.000000,160.500000,
0.804000000,32767.000000,,,,
0.808000000,32767.000000,,,,
0.812000000,32767.000000,,,,
0.816000000,32767.000000,,,,
0.820000000,32767.000000,,,,
0.824000000,32767.000000,,,,
0.828000000,32767.000000,,,,
0.832000000,32767.000000,,,,
0.836000000,32767.000000,,,,
0.840000000,32767.000000,933.500000,277.500000,160.500000,
0.844000000,32767.000000,,,,
0.848000000,32767.000000,,,,
0.852000000,32767.000000,,,,
0.856000000,32767.000000,,,,
0.860000000,32767.000000,,,,
0.864000000,32767.000000,,,,
0.868000000,32767.000000,,,,
0.872000000,32767.000000,,,,
0.876000000,32767.000000,,,,
0.880000000,32767.000000,933.500000,256.000000,156.500000,
0.884000000,32767.000000,,,,
0.888000000,32767.000000,,,,
0.892000000,32767.000000,,,,
0.896000000,32767.000000,,,,
0.900000000,32767.000000,,,,
0.904000000,32767.000000,,,,
0.908000000,32767.000000,,,,
0.912000000,32767.000000,,,,
0.916000000,32767.000000,,,,
0.920000000,32767.000000,931.500000,238.500000,154.500000,
0.924000000,32767.000000,,,,
0.928000000,32767.000000,,,,
0.932000000,32767.000000,,,,
0.936000000,32767.000000,,,,
0.940000000,32767.000000,,,,
0.944000000,32767.000000,,,,
0.948000000,32767.000000,,,,
0.952000000,32767.000000,,,,
0.956000000,32767.000000,,,,
0.960000000,32767.000000,931.500000,238.500000,154.500000,
0.964000000,32767.000000,,,,
0.968000000,32767.000000,,,,
0.972000000,32767.000000,,,,
0.976000000,32767.000000,,,,
0.980000000,32767.000000,,,,
0.984000000,32767.000000,,,,
0.988000000,32767.000000,,,,
0.992000000,32767.000000,,,,
0.996000000,32767.000000,,,,
1.000000000,32767.000000,951.000000,229.000000,148.500000,0.000000
1.004000000,32767.000000,,,,
1.008000000,32767.000000,,,,
1.012000000,32767.000000,,,,
1.016000000,32767.000000,,,,
1.020000000,32767.000000,,,,
1.024000000,32767.000000,,,,
1.028000000,32767.000000,,,,
1.032000000,32767.000000,,,,
1.036000000,32767.000000,,,,
1.040000000,32767.000000,964.500000,221.000000,150.500000,
1.044000000,32767.000000,,,,
1.048000000,32767.000000,,,,
1.052000000,32767.000000,,,,
1.056000000,32767.000000,,,,
1.060000000,32767.000000,,,,
1.064000000,32767.000000,,,,
1.068000000,32767.000000,,,,
1.072000000,32767.000000,,,,
1.076000000,32767.000000,,,,
1.080000000,32767.000000,974.500000,215.000000,154.500000,
1.084000000,32767.000000,,,,
1.088000000,32767.000000,,,,
1.092000000,32767.000000,,,,
1.096000000,32767.000000,,,,
1.100000000,32767.000000,,,,
1.104000000,32767.000000,,,,
1.108000000,32767.000000,,,,
1.112000000,32767.000000,,,,
1.116000000,32767.000000,,,,
1.120000000,32767.000000,982.000000,201.500000,156.500000,
1.124000000,32767.000000,,,,
1.128000000,32767.000000,,,,
1.132000000,32767.000000,,,,
1.136000000,32767.000000,,,,
1.140000000,32767.000000,,,,
1.144000000,32767.000000,,,,
1.148000000,32767.000000,,,,
1.152000000,32767.000000,,,,
1.156000000,32767.000000,,,,
1.160000000,32767.000000,984.000000,191.500000,160.500000,
1.164000000,32767.000000,,,,
1.168000000,32767.000000,,,,
1.172000000,32767.000000,,,,
1.176000000,32767.000000,,,,
1.180000000,32767.000000,,,,
1.184000000,32767.000000,,,,
1.188000000,32767.000000,,,,
1.192000000,32767.000000,,,,
1.196000000,32767.000000,,,,
1.200000000,32767.000000,978.500000,184.000000,154.500000,
1.204000000,32767.000000,,,,
1.208000000,32767.000000,,,,
1.212000000,32767.000000,,,,
1.216000000,32767.000000,,,,
1.220000000,32767.000000,,,,
1.224000000,32767.000000,,,,
1.228000000,32767.000000,,,,
1.232000000,32767.000000,,,,
1.236000000,32767.000000,,,,
1.240000000,32767.000000,972.500000,166.500000,166.500000,
1.244000000,32767.000000,,,,
1.248000000,32767.000000,,,,
1.252000000,32767.000000,,,,
1.256000000,32767.000000,,,,
1.260000000,32767.000000,,,,
1.264000000,32767.000000,,,,
1.268000000,32767.000000,,,,
1.272000000,32767.000000,,,,
1.276000000,32767.000000,,,,
1.280000000,32767.000000,966.500000,152.500000,164.500000,
1.284000000,32767.000000,,,,
1.288000000,32767.000000,,,,
1.292000000,32767.000000,,,,
1.296000000,32767.000000,,,,
1.300000000,32767.000000,,,,
1.304000000,32767.000000,,,,
1.308000000,32767.000000,,,,
1.312000000,32767.000000,,,,
1.316000000,32767.000000,,,,
1.320000000,32767.000000,1070.000000,133.000000,189.500000,
1.324000000,32767.000000,,,,
1.328000000,32767.000000,,,,
1.332000000,32767.000000,,,,
1.336000000,32767.000000,,,,
1.340000000,32767.000000,,,,
1.344000000,32767.000000,,,,
1.348000000,32767.000000,,,,
1.352000000,32767.000000,,,,
1.356000000,32767.000000,,,,
1.360000000,32767.000000,1007.500000,119.500000,168.000000,
1.364000000,32767.000000,,,,
1.368000000,32767.000000,,,,
1.372000000,32767.000000,,,,
1.376000000,32767.000000,,,,
1.380000000,32767.000000,,,,
1.384000000,32767.000000,,,,
1.388000000,32767.000000,,,,
1.392000000,32767.000000,,,,
1.396000000,32767.000000,,,,
1.400000000,32767.000000,978.500000,102.000000,180.000000,
1.404000000,32767.000000,,,,
1.408000000,32767.000000,,,,
1.412000000,32767.000000,,,,
1.416000000,32767.000000,,,,
1.420000000,32767.000000,,,,
1.424000000,32767.000000,,,,
1.428000000,32767.000000,,,,
1.432000000,32767.000000,,,,
1.436000000,32767.000000,,,,
1.440000000,32767.000000,945.000000,61.000000,182.000000,
1.444000000,32767.000000,,,,
1.448000000,32767.000000,,,,
1.452000000,32767.000000,,,,
1.456000000,32767.000000,,,,
1.460000000,32767.000000,,,,
1.464000000,32767.000000,,,,
1.468000000,32767.000000,,,,
1.472000000,32767.000000,,,,
1.476000000,32767.000000,,,,
1.480000000,32767.000000,917.500000,8.000000,162.500000,
1.484000000,32767.000000,,,,
1.488000000,32767.000000,,,,
1.492000000,32767.000000,,,,
1.496000000,32767.000000,,,,
1.500000000,32767.000000,,,,
1.504000000,32767.000000,,,,
1.508000000,32767.000000,,,,
1.512000000,32767.000000,,,,
1.516000000,32767.000000,,,,
1.520000000,32767.000000,921.500000,41.000000,145.000000,
1.524000000,32767.000000,,,,
1.528000000,32767.000000,,,,
1.532000000,32767.000000,,,,
1.536000000,32767.000000,,,,
1.540000000,32767.000000,,,,
1.544000000,32767.000000,,,,
1.548000000,32767.000000,,,,
1.552000000,32767.000000,,,,
1.556000000,32767.000000,,,,
1.560000000,32767.000000,966.500000,93.500000,141.000000,
1.564000000,32767.000000,,,,
1.568000000,32767.000000,,,,
1.572000000,32767.000000,,,,
1.576000000,32767.000000,,,,
1.580000000,32767.000000,,,,
1.584000000,32767.000000,,,,
1.588000000,32767.000000,,,,
1.592000000,32767.000000,,,,
1.596000000,32767.000000,,,,
1.600000000,32767.000000,994.000000,113.000000,174.000000,
1.604000000,32767.000000,,,,
1.608000000,32767.000000,,,,
1.612000000,32767.000000,,,,
1.616000000,32767.000000,,,,
1.620000000,32767.000000,,,,
1.624000000,32767.000000,,,,
1.628000000,32767.000000,,,,
1.632000000,32767.000000,,,,
1.636000000,32767.000000,,,,
1.640000000,32767.000000,970.500000,121.000000,168.000000,
1.644000000,32767.000000,,,,
1.648000000,32767.000000,,,,
1.652000000,32767.000000,,,,
1.656000000,32767.000000,,,,
1.660000000,32767.000000,,,,
1.664000000,32767.000000,,,,
1.668000000,32767.000000,,,,
1.672000000,32767.000000,,,,
1.676000000,32767.000000,,,,
1.680000000,32767.000000,949.000000,140.500000,156.500000,
1.684000000,32767.000000,,,,
1.688000000,32767.000000,,,,
1.692000000,32767.000000,,,,
1.696000000,32767.000000,,,,
1.700000000,32767.000000,,,,
1.704000000,32767.000000,,,,
1.708000000,32767.000000,,,,
1.712000000,32767.000000,,,,
1.716000000,32767.000000,,,,
1.720000000,32767.000000,949.000000,150.000000,145.000000,
1.724000000,32767.000000,,,,
1.728000000,32767.000000,,,,
1.732000000,32767.000000,,,,
1.736000000,32767.000000,,,,
1.740000000,32767.000000,,,,
1.744000000,32767.000000,,,,
1.748000000,32767.000000,,,,
1.752000000,32767.000000,,,,
1.756000000,32767.000000,,,,
1.760000000,32767.000000,960.500000,150.000000,139.000000,
1.764000000,32767.000000,,,,
1.768000000,32767.000000,,,,
1.772000000,32767.000000,,,,
1.776000000,32767.000000,,,,
1.780000000,32767.000000,,,,
1.784000000,32767.000000,,,,
1.788000000,32767.000000,,,,
1.792000000,32767.000000,,,,
1.796000000,32767.000000,,,,
1.800000000,32767.000000,986.000000,132.500000,133.000000,
1.804000000,32767.000000,,,,
1.808000000,32767.000000,,,,
1.812000000,32767.000000,,,,
1.816000000,32767.000000,,,,
1.820000000,32767.000000,,,,
1.824000000,32767.000000,,,,
1.828000000,32767.000000,,,,
1.832000000,32767.000000,,,,
1.836000000,32767.000000,,,,
1.840000000,32767.000000,1058.500000,115.000000,166.500000,
1.844000000,32767.000000,,,,
1.848000000,32767.000000,,,,
1.852000000,32767.000000,,,,
1.856000000,32767.000000,,,,
1.860000000,32767.000000,,,,
1.864000000,32767.000000,,,,
1.868000000,32767.000000,,,,
1.872000000,32767.000000,,,,
1.876000000,32767.000000,,,,
1.880000000,32767.000000,964.500000,60.500000,184.000000,
1.884000000,32767.000000,,,,
1.888000000,32767.000000,,,,
1.892000000,32767.000000,,,,
1.896000000,32767.000000,,,,
1.900000000,32767.000000,,,,
1.904000000,32767.000000,,,,
1.908000000,32767.000000,,,,
1.912000000,32767.000000,,,,
1.916000000,32767.000000,,,,
1.920000000,32767.000000,951.000000,17.500000,172.000000,
1.924000000,32767.000000,,,,
1.928000000,32767.000000,,,,
1.932000000,32767.000000,,,,
1.936000000,32767.000000,,,,
1.940000000,32767.000000,,,,
1.944000000,32767.000000,,,,
1.948000000,32767.000000,,,,
1.952000000,32767.000000,,,,
1.956000000,32767.000000,,,,
1.960000000,32767.000000,945.000000,13.500000,176.000000,
1.964000000,32767.000000,,,,
1.968000000,32767.000000,,,,
1.972000000,32767.000000,,,,
1.976000000,32767.000000,,,,
1.980000000,32767.000000,,,,
1.984000000,32767.000000,,,,
1.988000000,32767.000000,,,,
1.992000000,32767.000000,,,,
1.996000000,32767.000000,,,,
2.000000000,32767.000000,964.500000,15.500000,170.000000,0.000000
2.004000000,32767.000000,,,,
2.008000000,32767.000000,,,,
2.012000000,32767.000000,,,,
2.016000000,32767.000000,,,,
2.020000000,32767.000000,,,,
2.024000000,32767.000000,,,,
2.028000000,32767.000000,,,,
2.032000000,32767.000000,,,,
2.036000000,32767.000000,,,,
2.040000000,32767.000000,974.500000,8.000000,186.000000,
2.044000000,32767.000000,,,,
2.048000000,32767.000000,,,,
2.052000000,32767.000000,,,,
2.056000000,32767.000000,,,,
2.060000000,32767.000000,,,,
2.064000000,32767.000000,,,,
2.068000000,32767.000000,,,,
2.072000000,32767.000000,,,,
2.076000000,32767.000000,,,,
2.080000000,32767.000000,966.500000,23.500000,197.500000,
2.084000000,32767.000000,,,,
2.088000000,32767.000000,,,,
2.092000000,32767.000000,,,,
2.096000000,32767.000000,,,,
2.100000000,32767.000000,,,,
2.104000000,32767.000000,,,,
2.108000000,32767.000000,,,,
2.112000000,32767.000000,,,,
2.116000000,32767.000000,,,,
2.120000000,32767.000000,953.000000,20.000000,201.500000,
2.124000000,32767.000000,,,,
2.128000000,32767.000000,,,,
2.132000000,32767.000000,,,,
2.136000000,32767.000000,,,,
2.140000000,32767.000000,,,,
2.144000000,32767.000000,,,,
2.148000000,32767.000000,,,,
2.152000000,32767.000000,,,,
2.156000000,32767.000000,,,,
2.160000000,32767.000000,945.000000,10.000000,201.500000,
2.164000000,32767.000000,,,,
2.168000000,32767.000000,,,,
2.172000000,32767.000000,,,,
2.176000000,32767.000000,,,,
2.180000000,32767.000000,,,,
2.184000000,32767.000000,,,,
2.188000000,32767.000000,,,,
2.192000000,32767.000000,,,,
2.196000000,32767.000000,,,,
2.200000000,32767.000000,939.000000,8.000000,201.500000,
2.204000000,32767.000000,,,,
2.208000000,32767.000000,,,,
2.212000000,32767.000000,,,,
2.216000000,32767.000000,,,,
2.220000000,32767.000000,,,,
2.224000000,32767.000000,,,,
2.228000000,32767.000000,,,,
2.232000000,32767.000000,,,,
2.236000000,32767.000000,,,,
2.240000000,32767.000000,943.000000,14.000000,199.500000,
2.244000000,32767.000000,,,,
2.248000000,32767.000000,,,,
2.252000000,32767.000000,,,,
2.256000000,32767.000000,,,,
2.260000000,32767.000000,,,,
2.264000000,32767.000000,,,,
2.268000000,32767.000000,,,,
2.272000000,32767.000000,,,,
2.276000000,32767.000000,,,,
2.280000000,32767.000000,951.000000,16.000000,199.500000,
2.284000000,32767.000000,,,,
2.288000000,32767.000000,,,,
2.292000000,32767.000000,,,,
2.296000000,32767.000000,,,,
2.300000000,32767.000000,,,,
2.304000000,32767.000000,,,,
2.308000000,32767.000000,,,,
2.312000000,32767.000000,,,,
2.316000000,32767.000000,,,,
2.320000000,32767.000000,958.500000,25.500000,195.500000,
2.324000000,32767.000000,,,,
2.328000000,32767.000000,,,,
2.332000000,32767.000000,,,,
2.336000000,32767.000000,,,,
2.340000000,32767.000000,,,,
2.344000000,32767.000000,,,,
2.348000000,32767.000000,,,,
2.352000000,32767.000000,,,,
2.356000000,32767.000000,,,,
2.360000000,32767.000000,955.000000,29.500000,195.500000,
2.364000000,32767.000000,,,,
2.368000000,32767.000000,,,,
2.372000000,32767.000000,,,,
2.376000000,32767.000000,,,,
2.380000000,32767.000000,,,,
2.384000000,32767.000000,,,,
2.388000000,32767.000000,,,,
2.392000000,32767.000000,,,,
2.396000000,32767.000000,,,,
2.400000000,32767.000000,970.500000,29.500000,191.500000,
2.404000000,32767.000000,,,,
2.408000000,32767.000000,,,,
2.412000000,32767.000000,,,,
2.416000000,32767.000000,,,,
2.420000000,32767.000000,,,,
2.424000000,32767.000000,,,,
2.428000000,32767.000000,,,,
2.432000000,32767.000000,,,,
2.436000000,32767.000000,,,,
2.440000000,32767.000000,960.500000,27.500000,213.000000,
2.444000000,32767.000000,,,,
2.448000000,32767.000000,,,,
2.452000000,32767.000000,,,,
2.456000000,32767.000000,,,,
2.460000000,32767.000000,,,,
2.464000000,32767.000000,,,,
2.468000000,32767.000000,,,,
2.472000000,32767.000000,,,,
2.476000000,32767.000000,,,,
2.480000000,32767.000000,966.500000,35.500000,187.500000,
2.484000000,32767.000000,,,,
2.488000000,32767.000000,,,,
2.492000000,32767.000000,,,,
2.496000000,32767.000000,,,,
2.500000000,32767.000000,,,,
2.504000000,32767.000000,,,,
2.508000000,32767.000000,,,,
2.512000000,32767.000000,,,,
2.516000000,32767.000000,,,,
2.520000000,32767.000000,972.500000,25.500000,176.000000,
2.524000000,32767.000000,,,,
2.528000000,32767.000000,,,,
2.532000000,32767.000000,,,,
2.536000000,32767.000000,,,,
2.540000000,32767.000000,,,,
2.544000000,32767.000000,,,,
2.548000000,32767.000000,,,,
2.552000000,32767.000000,,,,
2.556000000,32767.000000,,,,
2.560000000,32767.000000,976.500000,21.500000,172.000000,
2.564000000,32767.000000,,,,
2.568000000,32767.000000,,,,
2.572000000,32767.000000,,,,
2.576000000,32767.000000,,,,
2.580000000,32767.000000,,,,
2.584000000,32767.000000,,,,
2.588000000,32767.000000,,,,
2.592000000,32767.000000,,,,
2.596000000,32767.000000,,,,
2.600000000,32767.000000,976.500000,21.500000,174.000000,
2.604000000,32767.000000,,,,
2.608000000,32767.000000,,,,
2.612000000,32767.000000,,,,
2.616000000,32767.000000,,,,
2.620000000,32767.000000,,,,
2.624000000,32767.000000,,,,
2.628000000,32767.000000,,,,
2.632000000,32767.000000,,,,
2.636000000,32767.000000,,,,
2.640000000,32767.000000,974.500000,12.000000,158.500000,
2.644000000,32767.000000,,,,
2.648000000,32767.000000,,,,
2.652000000,32767.000000,,,,
2.656000000,32767.000000,,,,
2.660000000,32767.000000,,,,
2.664000000,32767.000000,,,,
2.668000000,32767.000000,,,,
2.672000000,32767.000000,,,,
2.676000000,32767.000000,,,,
2.680000000,32767.000000,978.500000,12.000000,162.500000,
2.684000000,32767.000000,,,,
2.688000000,32767.000000,,,,
2.692000000,32767.000000,,,,
2.696000000,32767.000000,,,,
2.700000000,32767.000000,,,,
2.704000000,32767.000000,,,,
2.708000000,32767.000000,,,,
2.712000000,32767.000000,,,,
2.716000000,32767.000000,,,,
2.720000000,32767.000000,978.500000,6.000000,156.500000,
2.724000000,32767.000000,,,,
2.728000000,32767.000000,,,,
2.732000000,32767.000000,,,,
2.736000000,32767.000000,,,,
2.740000000,32767.000000,,,,
2.744000000,32767.000000,,,,
2.748000000,32767.000000,,,,
2.752000000,32767.000000,,,,
2.756000000,32767.000000,,,,
2.760000000,32767.000000,982.000000,2.000000,154.500000,
2.764000000,32767.000000,,,,
2.768000000,32767.000000,,,,
2.772000000,32767.000000,,,,
2.776000000,32767.000000,,,,
2.780000000,32767.000000,,,,
2.784000000,32767.000000,,,,
2.788000000,32767.000000,,,,
2.792000000,32767.000000,,,,
2.796000000,32767.000000,,,,
2.800000000,32767.000000,982.000000,4.000000,145.000000,
2.804000000,32767.000000,,,,
2.808000000,32767.000000,,,,
2.812000000,32767.000000,,,,
2.816000000,32767.000000,,,,
2.820000000,32767.000000,,,,
2.824000000,32767.000000,,,,
2.828000000,32767.000000,,,,
2.832000000,32767.000000,,,,
2.836000000,32767.000000,,,,
2.840000000,32767.000000,986.000000,1.500000,150.500000,
2.844000000,32767.000000,,,,
2.848000000,32767.000000,,,,
2.852000000,32767.000000,,,,
2.856000000,32767.000000,,,,
2.860000000,32767.000000,,,,
2.864000000,32767.000000,,,,
2.868000000,32767.000000,,,,
2.872000000,32767.000000,,,,
2.876000000,32767.000000,,,,
2.880000000,32767.000000,988.000000,5.500000,146.500000,
2.884000000,32767.000000,,,,
2.888000000,32767.000000,,,,
2.892000000,32767.000000,,,,
2.896000000,32767.000000,,,,
2.900000000,32767.000000,,,,
2.904000000,32767.000000,,,,
2.908000000,32767.000000,,,,
2.912000000,32767.000000,,,,
2.916000000,32767.000000,,,,
2.920000000,32767.000000,988.000000,3.500000,148.500000,
2.924000000,32767.000000,,,,
2.928000000,32767.000000,,,,
2.932000000,32767.000000,,,,
2.936000000,32767.000000,,,,
2.940000000,32767.000000,,,,
2.944000000,32767.000000,,,,
2.948000000,32767.000000,,,,
2.952000000,32767.000000,,,,
2.956000000,32767.000000,,,,
2.960000000,32767.000000,990.000000,4.000000,168.000000,
2.964000000,32767.000000,,,,
2.968000000,32767.000000,,,,
2.972000000,32767.000000,,,,
2.976000000,32767.000000,,,,
2.980000000,32767.000000,,,,
2.984000000,32767.000000,,,,
2.988000000,32767.000000,,,,
2.992000000,32767.000000,,,,
2.996000000,32767.000000,,,,
3.000000000,32767.000000,988.000000,6.000000,158.500000,0.000000
3.004000000,32767.000000,,,,
3.008000000,32767.000000,,,,
3.012000000,32767.000000,,,,
3.016000000,32767.000000,,,,
3.020000000,32767.000000,,,,
3.024000000,32767.000000,,,,
3.028000000,32767.000000,,,,
3.032000000,32767.000000,,,,
3.036000000,32767.000000,,,,
3.040000000,32767.000000,996.000000,4.000000,164.500000,
3.044000000,32767.000000,,,,
3.048000000,32767.000000,,,,
3.052000000,32767.000000,,,,
3.056000000,32767.000000,,,,
3.060000000,32767.000000,,,,
3.064000000,32767.000000,,,,
3.068000000,32767.000000,,,,
3.072000000,32767.000000,,,,
3.076000000,32767.000000,,,,
3.080000000,32767.000000,982.000000,6.000000,164.500000,
3.084000000,32767.000000,,,,
3.088000000,32767.000000,,,,
3.092000000,32767.000000,,,,
3.096000000,32767.000000,,,,
3.100000000,32767.000000,,,,
3.104000000,32767.000000,,,,
3.108000000,32767.000000,,,,
3.112000000,32767.000000,,,,
3.116000000,32767.000000,,,,
3.120000000,32767.000000,974.500000,4.000000,174.000000,
3.124000000,32767.000000,,,,
3.128000000,32767.000000,,,,
3.132000000,32767.000000,,,,
3.136000000,32767.000000,,,,
3.140000000,32767.000000,,,,
3.144000000,32767.000000,,,,
3.148000000,32767.000000,,,,
3.152000000,32767.000000,,,,
3.156000000,32767.000000,,,,
3.160000000,32767.000000,968.500000,4.000000,187.500000,
3.164000000,32767.000000,,,,
3.168000000,32767.000000,,,,
3.172000000,32767.000000,,,,
3.176000000,32767.000000,,,,
3.180000000,32767.000000,,,,
3.184000000,32767.000000,,,,
3.188000000,32767.000000,,,,
3.192000000,32767.000000,,,,
3.196000000,32767.000000,,,,
3.200000000,32767.000000,960.500000,1.500000,191.500000,
3.204000000,32767.000000,,,,
3.208000000,32767.000000,,,,
3.212000000,32767.000000,,,,
3.216000000,32767.000000,,,,
3.220000000,32767.000000,,,,
3.224000000,32767.000000,,,,
3.228000000,32767.000000,,,,
3.232000000,32767.000000,,,,
3.236000000,32767.000000,,,,
3.240000000,32767.000000,953.000000,2.000000,201.500000,
3.244000000,32767.000000,,,,
3.248000000,32767.000000,,,,
3.252000000,32767.000000,,,,
3.256000000,32767.000000,,,,
3.260000000,32767.000000,,,,
3.264000000,32767.000000,,,,
3.268000000,32767.000000,,,,
3.272000000,32767.000000,,,,
3.276000000,32767.000000,,,,
3.280000000,32767.000000,960.500000,2.000000,207.500000,
3.284000000,32767.000000,,,,
3.288000000,32767.000000,,,,
3.292000000,32767.000000,,,,
3.296000000,32767.000000,,,,
3.300000000,32767.000000,,,,
3.304000000,32767.000000,,,,
3.308000000,32767.000000,,,,
3.312000000,32767.000000,,,,
3.316000000,32767.000000,,,,
3.320000000,32767.000000,951.000000,1.500000,219.000000,
3.324000000,32767.000000,,,,
3.328000000,32767.000000,,,,
3.332000000,32767.000000,,,,
3.336000000,32767.000000,,,,
3.340000000,32767.000000,,,,
3.344000000,32767.000000,,,,
3.348000000,32767.000000,,,,
3.352000000,32767.000000,,,,
3.356000000,32767.000000,,,,
3.360000000,32767.000000,945.000000,1.500000,229.000000,
3.364000000,32767.000000,,,,
3.368000000,32767.000000,,,,
3.372000000,32767.000000,,,,
3.376000000,32767.000000,,,,
3.380000000,32767.000000,,,,
3.384000000,32767.000000,,,,
3.388000000,32767.000000,,,,
3.392000000,32767.000000,,,,
3.396000000,32767.000000,,,,
3.400000000,32767.000000,939.000000,1.500000,236.500000,
3.404000000,32767.000000,,,,
3.408000000,32767.000000,,,,
3.412000000,32767.000000,,,,
3.416000000,32767.000000,,,,
3.420000000,32767.000000,,,,
3.424000000,32767.000000,,,,
3.428000000,32767.000000,,,,
3.432000000,32767.000000,,,,
3.436000000,32767.000000,,,,
3.440000000,32767.000000,931.500000,3.500000,248.500000,
3.444000000,32767.000000,,,,
3.448000000,32767.000000,,,,
3.452000000,32767.000000,,,,
3.456000000,32767.000000,,,,
3.460000000,32767.000000,,,,
3.464000000,32767.000000,,,,
3.468000000,32767.000000,,,,
3.472000000,32767.000000,,,,
3.476000000,32767.000000,,,,
3.480000000,32767.000000,933.500000,4.000000,252.000000,
3.484000000,32767.000000,,,,
3.488000000,32767.000000,,,,
3.492000000,32767.000000,,,,
3.496000000,32767.000000,,,,
3.500000000,32767.000000,,,,
3.504000000,32767.000000,,,,
3.508000000,32767.000000,,,,
3.512000000,32767.000000,,,,
3.516000000,32767.000000,,,,
3.520000000,32767.000000,945.000000,3.500000,254.000000,
3.524000000,32767.000000,,,,
3.528000000,32767.000000,,,,
3.532000000,32767.000000,,,,
3.536000000,32767.000000,,,,
3.540000000,32767.000000,,,,
3.544000000,32767.000000,,,,
3.548000000,32767.000000,,,,
3.552000000,32767.000000,,,,
3.556000000,32767.000000,,,,
3.560000000,32767.000000,953.000000,7.500000,258.000000,
3.564000000,32767.000000,,,,
3.568000000,32767.000000,,,,
3.572000000,32767.000000,,,,
3.576000000,32767.000000,,,,
3.580000000,32767.000000,,,,
3.584000000,32767.000000,,,,
3.588000000,32767.000000,,,,
3.592000000,32767.000000,,,,
3.596000000,32767.000000,,,,
3.600000000,32767.000000,951.000000,3.500000,260.000000,
3.604000000,32767.000000,,,,
3.608000000,32767.000000,,,,
3.612000000,32767.000000,,,,
3.616000000,32767.000000,,,,
3.620000000,32767.000000,,,,
3.624000000,32767.000000,,,,
3.628000000,32767.000000,,,,
3.632000000,32767.000000,,,,
3.636000000,32767.000000,,,,
3.640000000,32767.000000,947.000000,15.500000,246.500000,
3.644000000,32767.000000,,,,
3.648000000,32767.000000,,,,
3.652000000,32767.000000,,,,
3.656000000,32767.000000,,,,
3.660000000,32767.000000,,,,
3.664000000,32767.000000,,,,
3.668000000,32767.000000,,,,
3.672000000,32767.000000,,,,
3.676000000,32767.000000,,,,
3.680000000,32767.000000,939.000000,17.500000,252.000000,
3.684000000,32767.000000,,,,
3.688000000,32767.000000,,,,
3.692000000,32767.000000,,,,
3.696000000,32767.000000,,,,
3.700000000,32767.000000,,,,
3.704000000,32767.000000,,,,
3.708000000,32767.000000,,,,
3.712000000,32767.000000,,,,
3.716000000,32767.000000,,,,
3.720000000,32767.000000,951.000000,15.500000,264.000000,
3.724000000,32767.000000,,,,
3.728000000,32767.000000,,,,
3.732000000,32767.000000,,,,
3.736000000,32767.000000,,,,
3.740000000,32767.000000,,,,
3.744000000,32767.000000,,,,
3.748000000,32767.000000,,,,
3.752000000,32767.000000,,,,
3.756000000,32767.000000,,,,
3.760000000,32767.000000,955.000000,13.500000,277.500000,
3.764000000,32767.000000,,,,
3.768000000,32767.000000,,,,
3.772000000,32767.000000,,,,
3.776000000,32767.000000,,,,
3.780000000,32767.000000,,,,
3.784000000,32767.000000,,,,
3.788000000,32767.000000,,,,
3.792000000,32767.000000,,,,
3.796000000,32767.000000,,,,
3.800000000,32767.000000,955.000000,17.500000,281.500000,
3.804000000,32767.000000,,,,
3.808000000,32767.000000,,,,
3.812000000,32767.000000,,,,
3.816000000,32767.000000,,,,
3.820000000,32767.000000,,,,
3.824000000,32767.000000,,,,
3.828000000,32767.000000,,,,
3.832000000,32767.000000,,,,
3.836000000,32767.000000,,,,
3.840000000,32767.000000,953.000000,19.500000,270.000000,
3.844000000,32767.000000,,,,
3.848000000,32767.000000,,,,
3.852000000,32767.000000,,,,
3.856000000,32767.000000,,,,
3.860000000,32767.000000,,,,
3.864000000,32767.000000,,,,
3.868000000,32767.000000,,,,
3.872000000,32767.000000,,,,
3.876000000,32767.000000,,,,
3.880000000,32767.000000,957.000000,1.500000,254.000000,
3.884000000,32767.000000,,,,
3.888000000,32767.000000,,,,
3.892000000,32767.000000,,,,
3.896000000,32767.000000,,,,
3.900000000,32767.000000,,,,
3.904000000,32767.000000,,,,
3.908000000,32767.000000,,,,
3.912000000,32767.000000,,,,
3.916000000,32767.000000,,,,
3.920000000,32767.000000,964.500000,7.500000,248.500000,
3.924000000,32767.000000,,,,
3.928000000,32767.000000,,,,
3.932000000,32767.000000,,,,
3.936000000,32746.000000,,,,
3.940000000,32717.000000,,,,
3.944000000,32690.000000,,,,
3.948000000,32656.000000,,,,
3.952000000,32633.000000,,,,
3.956000000,32610.000000,,,,
3.960000000,32585.000000,960.500000,7.500000,240.500000,
3.964000000,32568.000000,,,,
3.968000000,32537.000000,,,,
3.972000000,32515.000000,,,,
3.976000000,32497.000000,,,,
3.980000000,32469.000000,,,,
3.984000000,32428.000000,,,,
3.988000000,32385.000000,,,,
3.992000000,32359.000000,,,,
3.996000000,32331.000000,,,,
4.000000000,32287.000000,945.000000,15.500000,252.000000,0.000000
4.004000000,32247.000000,,,,
4.008000000,32225.000000,,,,
4.012000000,32214.000000,,,,
4.016000000,32178.000000,,,,
4.020000000,32137.000000,,,,
4.024000000,32105.000000,,,,
4.028000000,32075.000000,,,,
4.032000000,32038.000000,,,,
4.036000000,31996.000000,,,,
4.040000000,31955.000000,947.000000,27.000000,246.500000,
4.044000000,31915.000000,,,,
4.048000000,31875.000000,,,,
4.052000000,31839.000000,,,,
4.056000000,31794.000000,,,,
4.060000000,31747.000000,,,,
4.064000000,31711.000000,,,,
4.068000000,31663.000000,,,,
4.072000000,31608.000000,,,,
4.076000000,31562.000000,,,,
4.080000000,31527.000000,945.000000,35.000000,238.500000,
4.084000000,31491.000000,,,,
4.088000000,31447.000000,,,,
4.092000000,31398.000000,,,,
4.096000000,31353.000000,,,,
4.100000000,31307.000000,,,,
4.104000000,31261.000000,,,,
4.108000000,31216.000000,,,,
4.112000000,31172.000000,,,,
4.116000000,31131.000000,,,,
4.120000000,31086.000000,943.000000,44.500000,254.000000,
4.124000000,31044.000000,,,,
4.128000000,31004.000000,,,,
4.132000000,30962.000000,,,,
4.136000000,30916.000000,,,,
4.140000000,30868.000000,,,,
4.144000000,30832.000000,,,,
4.148000000,30807.000000,,,,
4.152000000,30767.000000,,,,
4.156000000,30726.000000,,,,
4.160000000,30693.000000,947.000000,56.500000,264.000000,
4.164000000,30654.000000,,,,
4.168000000,30614.000000,,,,
4.172000000,30584.000000,,,,
4.176000000,30541.000000,,,,
4.180000000,30499.000000,,,,
4.184000000,30470.000000,,,,
4.188000000,30468.000000,,,,
4.192000000,30479.000000,,,,
4.196000000,30482.000000,,,,
4.200000000,30463.000000,951.000000,64.000000,273.500000,
4.204000000,30442.000000,,,,
4.208000000,30435.000000,,,,
4.212000000,30439.000000,,,,
4.216000000,30428.000000,,,,
4.220000000,30413.000000,,,,
4.224000000,30391.000000,,,,
4.228000000,30346.000000,,,,
4.232000000,30268.000000,,,,
4.236000000,30179.000000,,,,
4.240000000,30087.000000,947.000000,66.000000,271.500000,
4.244000000,29992.000000,,,,
4.248000000,29931.000000,,,,
4.252000000,29898.000000,,,,
4.256000000,29861.000000,,,,
4.260000000,29794.000000,,,,
4.264000000,29716.000000,,,,
4.268000000,29657.000000,,,,
4.272000000,29617.000000,,,,
4.276000000,29571.000000,,,,
4.280000000,29533.000000,953.000000,62.500000,264.000000,
4.284000000,29497.000000,,,,
4.288000000,29462.000000,,,,
4.292000000,29427.000000,,,,
4.296000000,29391.000000,,,,
4.300000000,29365.000000,,,,
4.304000000,29347.000000,,,,
4.308000000,29319.000000,,,,
4.312000000,29276.000000,,,,
4.316000000,29235.000000,,,,
4.320000000,29202.000000,958.500000,62.500000,258.000000,
4.324000000,29177.000000,,,,
4.328000000,29152.000000,,,,
4.332000000,29134.000000,,,,
4.336000000,29143.000000,,,,
4.340000000,29212.000000,,,,
4.344000000,29355.000000,,,,
4.348000000,29567.000000,,,,
4.352000000,29669.000000,,,,
4.356000000,29365.000000,,,,
4.360000000,28729.000000,949.000000,48.500000,258.000000,
4.364000000,28086.000000,,,,
4.368000000,27570.000000,,,,
4.372000000,27300.000000,,,,
4.376000000,27046.000000,,,,
4.380000000,26835.000000,,,,
4.384000000,26769.000000,,,,
4.388000000,26904.000000,,,,
4.392000000,27200.000000,,,,
4.396000000,27616.000000,,,,
4.400000000,28007.000000,949.000000,46.500000,262.000000,
4.404000000,28342.000000,,,,
4.408000000,28545.000000,,,,
4.412000000,28592.000000,,,,
4.416000000,28561.000000,,,,
4.420000000,28527.000000,,,,
4.424000000,28501.000000,,,,
4.428000000,28479.000000,,,,
4.432000000,28450.000000,,,,
4.436000000,28410.000000,,,,
4.440000000,28370.000000,951.000000,37.000000,264.000000,
4.444000000,28323.000000,,,,
4.448000000,28287.000000,,,,
4.452000000,28254.000000,,,,
4.456000000,28208.000000,,,,
4.460000000,28162.000000,,,,
4.464000000,28127.000000,,,,
4.468000000,28091.000000,,,,
4.472000000,28061.000000,,,,
4.476000000,28039.000000,,,,
4.480000000,28011.000000,957.000000,41.000000,262.000000,
4.484000000,27973.000000,,,,
4.488000000,27930.000000,,,,
4.492000000,27893.000000,,,,
4.496000000,27868.000000,,,,
4.500000000,27839.000000,,,,
4.504000000,27807.000000,,,,
4.508000000,27779.000000,,,,
4.512000000,27748.000000,,,,
4.516000000,27711.000000,,,,
4.520000000,27688.000000,953.000000,35.000000,256.000000,
4.524000000,27670.000000,,,,
4.528000000,27653.000000,,,,
4.532000000,27619.000000,,,,
4.536000000,27601.000000,,,,
4.540000000,27584.000000,,,,
4.544000000,27561.000000,,,,
4.548000000,27532.000000,,,,
4.552000000,27511.000000,,,,
4.556000000,27497.000000,,,,
4.560000000,27474.000000,957.000000,27.000000,260.000000,
4.564000000,27441.000000,,,,
4.568000000,27413.000000,,,,
4.572000000,27380.000000,,,,
4.576000000,27338.000000,,,,
4.580000000,27299.000000,,,,
4.584000000,27262.000000,,,,
4.588000000,27223.000000,,,,
4.592000000,27186.000000,,,,
4.596000000,27149.000000,,,,
4.600000000,27108.000000,957.000000,27.000000,270.000000,
4.604000000,27077.000000,,,,
4.608000000,27050.000000,,,,
4.612000000,27008.000000,,,,
4.616000000,26964.000000,,,,
4.620000000,26928.000000,,,,
4.624000000,26897.000000,,,,
4.628000000,26873.000000,,,,
4.632000000,26836.000000,,,,
4.636000000,26785.000000,,,,
4.640000000,26746.000000,947.000000,19.500000,270.000000,
4.644000000,26711.000000,,,,
4.648000000,26675.000000,,,,
4.652000000,26635.000000,,,,
4.656000000,26595.000000,,,,
4.660000000,26565.000000,,,,
4.664000000,26537.000000,,,,
4.668000000,26498.000000,,,,
4.672000000,26453.000000,,,,
4.676000000,26421.000000,,,,
4.680000000,26396.000000,949.000000,21.000000,275.500000,
4.684000000,26376.000000,,,,
4.688000000,26352.000000,,,,
4.692000000,26326.000000,,,,
4.696000000,26308.000000,,,,
4.700000000,26289.000000,,,,
4.704000000,26272.000000,,,,
4.708000000,26260.000000,,,,
4.712000000,26241.000000,,,,
4.716000000,26205.000000,,,,
4.720000000,26169.000000,939.000000,42.500000,283.500000,
4.724000000,26144.000000,,,,
4.728000000,26125.000000,,,,
4.732000000,26102.000000,,,,
4.736000000,26071.000000,,,,
4.740000000,26038.000000,,,,
4.744000000,26013.000000,,,,
4.748000000,26000.000000,,,,
4.752000000,25975.000000,,,,
4.756000000,25936.000000,,,,
4.760000000,25905.000000,955.000000,46.500000,254.000000,
4.764000000,25878.000000,,,,
4.768000000,25856.000000,,,,
4.772000000,25832.000000,,,,
4.776000000,25803.000000,,,,
4.780000000,25774.000000,,,,
4.784000000,25750.000000,,,,
4.788000000,25727.000000,,,,
4.792000000,25695.000000,,,,
4.796000000,25670.000000,,,,
4.800000000,25647.000000,951.000000,42.500000,250.000000,
4.804000000,25622.000000,,,,
4.808000000,25595.000000,,,,
4.812000000,25560.000000,,,,
4.816000000,25526.000000,,,,
4.820000000,25497.000000,,,,
4.824000000,25461.000000,,,,
4.828000000,25429.000000,,,,
4.832000000,25409.000000,,,,
4.836000000,25378.000000,,,,
4.840000000,25342.000000,943.000000,44.500000,266.000000,
4.844000000,25309.000000,,,,
4.848000000,25279.000000,,,,
4.852000000,25247.000000,,,,
4.856000000,25206.000000,,,,
4.860000000,25172.000000,,,,
4.864000000,25144.000000,,,,
4.868000000,25121.000000,,,,
4.872000000,25100.000000,,,,
4.876000000,25087.000000,,,,
4.880000000,25079.000000,943.000000,54.500000,268.000000,
4.884000000,25070.000000,,,,
4.888000000,25060.000000,,,,
4.892000000,25053.000000,,,,
4.896000000,25052.000000,,,,
4.900000000,25031.000000,,,,
4.904000000,25006.000000,,,,
4.908000000,24990.000000,,,,
4.912000000,24983.000000,,,,
4.916000000,24973.000000,,,,
4.920000000,24958.000000,947.000000,70.000000,273.500000,
4.924000000,24936.000000,,,,
4.928000000,24899.000000,,,,
4.932000000,24841.000000,,,,
4.936000000,24777.000000,,,,
4.940000000,24724.000000,,,,
4.944000000,24674.000000,,,,
4.948000000,24623.000000,,,,
4.952000000,24575.000000,,,,
4.956000000,24528.000000,,,,
4.960000000,24491.000000,935.500000,83.500000,264.000000,
4.964000000,24458.000000,,,,
4.968000000,24427.000000,,,,
4.972000000,24399.000000,,,,
4.976000000,24370.000000,,,,
4.980000000,24342.000000,,,,
4.984000000,24310.000000,,,,
4.988000000,24279.000000,,,,
4.992000000,24261.000000,,,,
4.996000000,24268.000000,,,,
5.000000000,24284.000000,931.500000,87.500000,262.000000,0.000000
5.004000000,24297.000000,,,,
5.008000000,24294.000000,,,,
5.012000000,24276.000000,,,,
5.016000000,24255.000000,,,,
5.020000000,24244.000000,,,,
5.024000000,24230.000000,,,,
5.028000000,24204.000000,,,,
5.032000000,24168.000000,,,,
5.036000000,24116.000000,,,,
5.040000000,24029.000000,927.500000,80.000000,270.000000,
5.044000000,23909.000000,,,,
5.048000000,23791.000000,,,,
5.052000000,23705.000000,,,,
5.056000000,23649.000000,,,,
5.060000000,23599.000000,,,,
5.064000000,23546.000000,,,,
5.068000000,23474.000000,,,,
5.072000000,23397.000000,,,,
5.076000000,23337.000000,,,,
5.080000000,23289.000000,943.000000,80.000000,281.500000,
5.084000000,23242.000000,,,,
5.088000000,23193.000000,,,,
5.092000000,23143.000000,,,,
5.096000000,23102.000000,,,,
5.100000000,23061.000000,,,,
5.104000000,23019.000000,,,,
5.108000000,22972.000000,,,,
5.112000000,22921.000000,,,,
5.116000000,22879.000000,,,,
5.120000000,22850.000000,943.000000,87.500000,285.500000,
5.124000000,22819.000000,,,,
5.128000000,22786.000000,,,,
5.132000000,22760.000000,,,,
5.136000000,22741.000000,,,,
5.140000000,22733.000000,,,,
5.144000000,22762.000000,,,,
5.148000000,22866.000000,,,,
5.152000000,23036.000000,,,,
5.156000000,23256.000000,,,,
5.160000000,23299.000000,931.500000,87.500000,289.500000,
5.164000000,22865.000000,,,,
5.168000000,22159.000000,,,,
5.172000000,21465.000000,,,,
5.176000000,20954.000000,,,,
5.180000000,20722.000000,,,,
5.184000000,20555.000000,,,,
5.188000000,20459.000000,,,,
5.192000000,20504.000000,,,,
5.196000000,20748.000000,,,,
5.200000000,21174.000000,933.500000,89.500000,283.500000,
5.204000000,21685.000000,,,,
5.208000000,22124.000000,,,,
5.212000000,22475.000000,,,,
5.216000000,22647.000000,,,,
5.220000000,22682.000000,,,,
5.224000000,22675.000000,,,,
5.228000000,22669.000000,,,,
5.232000000,22664.000000,,,,
5.236000000,22671.000000,,,,
5.240000000,22675.000000,943.000000,80.000000,281.500000,
5.244000000,22657.000000,,,,
5.248000000,22626.000000,,,,
5.252000000,22589.000000,,,,
5.256000000,22569.000000,,,,
5.260000000,22547.000000,,,,
5.264000000,22520.000000,,,,
5.268000000,22489.000000,,,,
5.272000000,22461.000000,,,,
5.276000000,22446.000000,,,,
5.280000000,22440.000000,951.000000,85.500000,271.500000,
5.284000000,22427.000000,,,,
5.288000000,22396.000000,,,,
5.292000000,22359.000000,,,,
5.296000000,22340.000000,,,,
5.300000000,22334.000000,,,,
5.304000000,22326.000000,,,,
5.308000000,22305.000000,,,,
5.312000000,22285.000000,,,,
5.316000000,22265.000000,,,,
5.320000000,22254.000000,957.000000,64.000000,254.000000,
5.324000000,22252.000000,,,,
5.328000000,22241.000000,,,,
5.332000000,22216.000000,,,,
5.336000000,22197.000000,,,,
5.340000000,22194.000000,,,,
5.344000000,22188.000000,,,,
5.348000000,22181.000000,,,,
5.352000000,22168.000000,,,,
5.356000000,22146.000000,,,,
5.360000000,22130.000000,951.000000,44.500000,254.000000,
5.364000000,22108.000000,,,,
5.368000000,22085.000000,,,,
5.372000000,22059.000000,,,,
5.376000000,22030.000000,,,,
5.380000000,21998.000000,,,,
5.384000000,21968.000000,,,,
5.388000000,21935.000000,,,,
5.392000000,21892.000000,,,,
5.396000000,21847.000000,,,,
5.400000000,21801.000000,947.000000,29.000000,248.500000,
5.404000000,21760.000000,,,,
5.408000000,21721.000000,,,,
5.412000000,21680.000000,,,,
5.416000000,21637.000000,,,,
5.420000000,21601.000000,,,,
5.424000000,21574.000000,,,,
5.428000000,21538.000000,,,,
5.432000000,21498.000000,,,,
5.436000000,21457.000000,,,,
5.440000000,21418.000000,957.000000,19.500000,240.500000,
5.444000000,21384.000000,,,,
5.448000000,21346.000000,,,,
5.452000000,21308.000000,,,,
5.456000000,21268.000000,,,,
5.460000000,21225.000000,,,,
5.464000000,21198.000000,,,,
5.468000000,21169.000000,,,,
5.472000000,21138.000000,,,,
5.476000000,21107.000000,,,,
5.480000000,21078.000000,960.500000,19.500000,240.500000,
5.484000000,21057.000000,,,,
5.488000000,21039.000000,,,,
5.492000000,21013.000000,,,,
5.496000000,20983.000000,,,,
5.500000000,20955.000000,,,,
5.504000000,20936.000000,,,,
5.508000000,20915.000000,,,,
5.512000000,20897.000000,,,,
5.516000000,20886.000000,,,,
5.520000000,20875.000000,960.500000,7.500000,236.500000,
5.524000000,20860.000000,,,,
5.528000000,20835.000000,,,,
5.532000000,20801.000000,,,,
5.536000000,20775.000000,,,,
5.540000000,20761.000000,,,,
5.544000000,20746.000000,,,,
5.548000000,20724.000000,,,,
5.552000000,20696.000000,,,,
5.556000000,20666.000000,,,,
5.560000000,20640.000000,960.500000,9.500000,240.500000,
5.564000000,20624.000000,,,,
5.568000000,20613.000000,,,,
5.572000000,20594.000000,,,,
5.576000000,20569.000000,,,,
5.580000000,20547.000000,,,,
5.584000000,20518.000000,,,,
5.588000000,20489.000000,,,,
5.592000000,20459.000000,,,,
5.596000000,20433.000000,,,,
5.600000000,20412.000000,964.500000,11.500000,234.500000,
5.604000000,20390.000000,,,,
5.608000000,20363.000000,,,,
5.612000000,20340.000000,,,,
5.616000000,20317.000000,,,,
5.620000000,20288.000000,,,,
5.624000000,20273.000000,,,,
5.628000000,20251.000000,,,,
5.632000000,20221.000000,,,,
5.636000000,20190.000000,,,,
5.640000000,20168.000000,964.500000,7.500000,232.500000,
5.644000000,20146.000000,,,,
5.648000000,20126.000000,,,,
5.652000000,20099.000000,,,,
5.656000000,20075.000000,,,,
5.660000000,20050.000000,,,,
5.664000000,20025.000000,,,,
5.668000000,20006.000000,,,,
5.672000000,19981.000000,,,,
5.676000000,19957.000000,,,,
5.680000000,19933.000000,960.500000,7.500000,238.500000,
5.684000000,19905.000000,,,,
5.688000000,19883.000000,,,,
5.692000000,19862.000000,,,,
5.696000000,19836.000000,,,,
5.700000000,19817.000000,,,,
5.704000000,19804.000000,,,,
5.708000000,19785.000000,,,,
5.712000000,19762.000000,,,,
5.716000000,19738.000000,,,,
5.720000000,19715.000000,964.500000,5.500000,238.500000,
5.724000000,19700.000000,,,,
5.728000000,19676.000000,,,,
5.732000000,19646.000000,,,,
5.736000000,19618.000000,,,,
5.740000000,19595.000000,,,,
5.744000000,19576.000000,,,,
5.748000000,19556.000000,,,,
5.752000000,19534.000000,,,,
5.756000000,19515.000000,,,,
5.760000000,19489.000000,960.500000,1.500000,238.500000,
5.764000000,19468.000000,,,,
5.768000000,19450.000000,,,,
5.772000000,19430.000000,,,,
5.776000000,19409.000000,,,,
5.780000000,19391.000000,,,,
5.784000000,19369.000000,,,,
5.788000000,19347.000000,,,,
5.792000000,19325.000000,,,,
5.796000000,19300.000000,,,,
5.800000000,19278.000000,964.500000,6.000000,236.500000,
5.804000000,19257.000000,,,,
5.808000000,19240.000000,,,,
5.812000000,19216.000000,,,,
5.816000000,19194.000000,,,,
5.820000000,19171.000000,,,,
5.824000000,19150.000000,,,,
5.828000000,19132.000000,,,,
5.832000000,19118.000000,,,,
5.836000000,19098.000000,,,,
5.840000000,19076.000000,966.500000,14.000000,240.500000,
5.844000000,19060.000000,,,,
5.848000000,19044.000000,,,,
5.852000000,19019.000000,,,,
5.856000000,18998.000000,,,,
5.860000000,18979.000000,,,,
5.864000000,18957.000000,,,,
5.868000000,18932.000000,,,,
5.872000000,18909.000000,,,,
5.876000000,18888.000000,,,,
5.880000000,18869.000000,958.500000,20.000000,240.500000,
5.884000000,18852.000000,,,,
5.888000000,18832.000000,,,,
5.892000000,18811.000000,,,,
5.896000000,18788.000000,,,,
5.900000000,18770.000000,,,,
5.904000000,18756.000000,,,,
5.908000000,18739.000000,,,,
5.912000000,18728.000000,,,,
5.916000000,18738.000000,,,,
5.920000000,18760.000000,955.000000,23.500000,238.500000,
5.924000000,18781.000000,,,,
5.928000000,18789.000000,,,,
5.932000000,18779.000000,,,,
5.936000000,18774.000000,,,,
5.940000000,18785.000000,,,,
5.944000000,18799.000000,,,,
5.948000000,18792.000000,,,,
5.952000000,18768.000000,,,,
5.956000000,18737.000000,,,,
5.960000000,18673.000000,958.500000,20.000000,238.500000,
5.964000000,18578.000000,,,,
5.968000000,18489.000000,,,,
5.972000000,18433.000000,,,,
5.976000000,18410.000000,,,,
5.980000000,18384.000000,,,,
5.984000000,18344.000000,,,,
5.988000000,18283.000000,,,,
5.992000000,18230.000000,,,,
5.996000000,18194.000000,,,,
6.000000000,18158.000000,955.000000,25.500000,234.500000,0.000000
6.004000000,18125.000000,,,,
6.008000000,18104.000000,,,,
6.012000000,18079.000000,,,,
6.016000000,18059.000000,,,,
6.020000000,18039.000000,,,,
6.024000000,18012.000000,,,,
6.028000000,17991.000000,,,,
6.032000000,17968.000000,,,,
6.036000000,17940.000000,,,,
6.040000000,17922.000000,955.000000,23.500000,230.500000,
6.044000000,17904.000000,,,,
6.048000000,17885.000000,,,,
6.052000000,17870.000000,,,,
6.056000000,17853.000000,,,,
6.060000000,17857.000000,,,,
6.064000000,17917.000000,,,,
6.068000000,18070.000000,,,,
6.072000000,18308.000000,,,,
6.076000000,18449.000000,,,,
6.080000000,18152.000000,960.500000,21.500000,234.500000,
6.084000000,17433.000000,,,,
6.088000000,16776.000000,,,,
6.092000000,16237.000000,,,,
6.096000000,16007.000000,,,,
6.100000000,15844.000000,,,,
6.104000000,15672.000000,,,,
6.108000000,15610.000000,,,,
6.112000000,15751.000000,,,,
6.116000000,16062.000000,,,,
6.120000000,16524.000000,957.000000,21.500000,234.500000,
6.124000000,17000.000000,,,,
6.128000000,17401.000000,,,,
6.132000000,17649.000000,,,,
6.136000000,17724.000000,,,,
6.140000000,17727.000000,,,,
6.144000000,17713.000000,,,,
6.148000000,17698.000000,,,,
6.152000000,17684.000000,,,,
6.156000000,17673.000000,,,,
6.160000000,17656.000000,955.000000,21.500000,227.000000,
6.164000000,17631.000000,,,,
6.168000000,17603.000000,,,,
6.172000000,17576.000000,,,,
6.176000000,17553.000000,,,,
6.180000000,17531.000000,,,,
6.184000000,17503.000000,,,,
6.188000000,17473.000000,,,,
6.192000000,17445.000000,,,,
6.196000000,17428.000000,,,,
6.200000000,17419.000000,953.000000,27.500000,229.000000,
6.204000000,17408.000000,,,,
6.208000000,17382.000000,,,,
6.212000000,17352.000000,,,,
6.216000000,17330.000000,,,,
6.220000000,17320.000000,,,,
6.224000000,17315.000000,,,,
6.228000000,17308.000000,,,,
6.232000000,17291.000000,,,,
6.236000000,17276.000000,,,,
6.240000000,17272.000000,949.000000,31.500000,227.000000,
6.244000000,17265.000000,,,,
6.248000000,17250.000000,,,,
6.252000000,17232.000000,,,,
6.256000000,17218.000000,,,,
6.260000000,17211.000000,,,,
6.264000000,17208.000000,,,,
6.268000000,17193.000000,,,,
6.272000000,17173.000000,,,,
6.276000000,17152.000000,,,,
6.280000000,17133.000000,949.000000,39.500000,230.500000,
6.284000000,17116.000000,,,,
6.288000000,17094.000000,,,,
6.292000000,17075.000000,,,,
6.296000000,17044.000000,,,,
6.300000000,17014.000000,,,,
6.304000000,16982.000000,,,,
6.308000000,16948.000000,,,,
6.312000000,16911.000000,,,,
6.316000000,16876.000000,,,,
6.320000000,16847.000000,955.000000,27.500000,223.000000,
6.324000000,16817.000000,,,,
6.328000000,16781.000000,,,,
6.332000000,16741.000000,,,,
6.336000000,16707.000000,,,,
6.340000000,16671.000000,,,,
6.344000000,16635.000000,,,,
6.348000000,16604.000000,,,,
6.352000000,16579.000000,,,,
6.356000000,16542.000000,,,,
6.360000000,16503.000000,958.500000,27.500000,221.000000,
6.364000000,16471.000000,,,,
6.368000000,16434.000000,,,,
6.372000000,16397.000000,,,,
6.376000000,16364.000000,,,,
6.380000000,16328.000000,,,,
6.384000000,16300.000000,,,,
6.388000000,16273.000000,,,,
6.392000000,16241.000000,,,,
6.396000000,16212.000000,,,,
6.400000000,16189.000000,960.500000,16.000000,221.000000,
6.404000000,16164.000000,,,,
6.408000000,16142.000000,,,,
6.412000000,16116.000000,,,,
6.416000000,16091.000000,,,,
6.420000000,16070.000000,,,,
6.424000000,16054.000000,,,,
6.428000000,16037.000000,,,,
6.432000000,16015.000000,,,,
6.436000000,16000.000000,,,,
6.440000000,15990.000000,966.500000,6.000000,207.500000,
6.444000000,15967.000000,,,,
6.448000000,15942.000000,,,,
6.452000000,15920.000000,,,,
6.456000000,15898.000000,,,,
6.460000000,15876.000000,,,,
6.464000000,15858.000000,,,,
6.468000000,15837.000000,,,,
6.472000000,15813.000000,,,,
6.476000000,15792.000000,,,,
6.480000000,15775.000000,964.500000,5.500000,201.500000,
6.484000000,15760.000000,,,,
6.488000000,15744.000000,,,,
6.492000000,15727.000000,,,,
6.496000000,15708.000000,,,,
6.500000000,15693.000000,,,,
6.504000000,15672.000000,,,,
6.508000000,15653.000000,,,,
6.512000000,15635.000000,,,,
6.516000000,15617.000000,,,,
6.520000000,15607.000000,962.500000,7.500000,195.500000,
6.524000000,15594.000000,,,,
6.528000000,15573.000000,,,,
6.532000000,15558.000000,,,,
6.536000000,15537.000000,,,,
6.540000000,15518.000000,,,,
6.544000000,15498.000000,,,,
6.548000000,15479.000000,,,,
6.552000000,15456.000000,,,,
6.556000000,15432.000000,,,,
6.560000000,15406.000000,960.500000,7.500000,189.500000,
6.564000000,15385.000000,,,,
6.568000000,15369.000000,,,,
6.572000000,15350.000000,,,,
6.576000000,15326.000000,,,,
6.580000000,15306.000000,,,,
6.584000000,15288.000000,,,,
6.588000000,15271.000000,,,,
6.592000000,15246.000000,,,,
6.596000000,15226.000000,,,,
6.600000000,15215.000000,964.500000,9.500000,176.000000,
6.604000000,15197.000000,,,,
6.608000000,15179.000000,,,,
6.612000000,15158.000000,,,,
6.616000000,15133.000000,,,,
6.620000000,15111.000000,,,,
6.624000000,15089.000000,,,,
6.628000000,15071.000000,,,,
6.632000000,15058.000000,,,,
6.636000000,15038.000000,,,,
6.640000000,15020.000000,960.500000,15.500000,170.000000,
6.644000000,15008.000000,,,,
6.648000000,14990.000000,,,,
6.652000000,14969.000000,,,,
6.656000000,14951.000000,,,,
6.660000000,14934.000000,,,,
6.664000000,14918.000000,,,,
6.668000000,14900.000000,,,,
6.672000000,14884.000000,,,,
6.676000000,14867.000000,,,,
6.680000000,14851.000000,966.500000,9.500000,164.500000,
6.684000000,14830.000000,,,,
6.688000000,14816.000000,,,,
6.692000000,14803.000000,,,,
6.696000000,14785.000000,,,,
6.700000000,14772.000000,,,,
6.704000000,14767.000000,,,,
6.708000000,14749.000000,,,,
6.712000000,14719.000000,,,,
6.716000000,14701.000000,,,,
6.720000000,14701.000000,962.500000,1.500000,154.500000,
6.724000000,14703.000000,,,,
6.728000000,14684.000000,,,,
6.732000000,14633.000000,,,,
6.736000000,14588.000000,,,,
6.740000000,14549.000000,,,,
6.744000000,14519.000000,,,,
6.748000000,14494.000000,,,,
6.752000000,14465.000000,,,,
6.756000000,14442.000000,,,,
6.760000000,14414.000000,968.500000,2.000000,139.000000,
6.764000000,14392.000000,,,,
6.768000000,14359.000000,,,,
6.772000000,14298.000000,,,,
6.776000000,14251.000000,,,,
6.780000000,14214.000000,,,,
6.784000000,14181.000000,,,,
6.788000000,14159.000000,,,,
6.792000000,14138.000000,,,,
6.796000000,14110.000000,,,,
6.800000000,14092.000000,964.500000,2.000000,131.000000,
6.804000000,14075.000000,,,,
6.808000000,14060.000000,,,,
6.812000000,14043.000000,,,,
6.816000000,14035.000000,,,,
6.820000000,14030.000000,,,,
6.824000000,14025.000000,,,,
6.828000000,14014.000000,,,,
6.832000000,13997.000000,,,,
6.836000000,13970.000000,,,,
6.840000000,13952.000000,960.500000,43.000000,119.500000,
6.844000000,13947.000000,,,,
6.848000000,13943.000000,,,,
6.852000000,13930.000000,,,,
6.856000000,13929.000000,,,,
6.860000000,13932.000000,,,,
6.864000000,13939.000000,,,,
6.868000000,13943.000000,,,,
6.872000000,13948.000000,,,,
6.876000000,13944.000000,,,,
6.880000000,13944.000000,972.500000,62.500000,113.500000,
6.884000000,13951.000000,,,,
6.888000000,13946.000000,,,,
6.892000000,13923.000000,,,,
6.896000000,13908.000000,,,,
6.900000000,13903.000000,,,,
6.904000000,13889.000000,,,,
6.908000000,13877.000000,,,,
6.912000000,13870.000000,,,,
6.916000000,13846.000000,,,,
6.920000000,13827.000000,982.000000,70.500000,111.500000,
6.924000000,13822.000000,,,,
6.928000000,13812.000000,,,,
6.932000000,13797.000000,,,,
6.936000000,13780.000000,,,,
6.940000000,13776.000000,,,,
6.944000000,13773.000000,,,,
6.948000000,13787.000000,,,,
6.952000000,13813.000000,,,,
6.956000000,13833.000000,,,,
6.960000000,13839.000000,982.000000,80.500000,105.500000,
6.964000000,13849.000000,,,,
6.968000000,13872.000000,,,,
6.972000000,13896.000000,,,,
6.976000000,13908.000000,,,,
6.980000000,13923.000000,,,,
6.984000000,13941.000000,,,,
6.988000000,13939.000000,,,,
6.992000000,13908.000000,,,,
6.996000000,13845.000000,,,,
7.000000000,13765.000000,986.000000,80.500000,92.000000,0.000000
7.004000000,13707.000000,,,,
7.008000000,13686.000000,,,,
7.012000000,13670.000000,,,,
7.016000000,13663.000000,,,,
7.020000000,13630.000000,,,,
7.024000000,13561.000000,,,,
7.028000000,13521.000000,,,,
7.032000000,13505.000000,,,,
7.036000000,13477.000000,,,,
7.040000000,13451.000000,990.000000,88.000000,72.500000,
7.044000000,13434.000000,,,,
7.048000000,13419.000000,,,,
7.052000000,13393.000000,,,,
7.056000000,13365.000000,,,,
7.060000000,13348.000000,,,,
7.064000000,13330.000000,,,,
7.068000000,13306.000000,,,,
7.072000000,13290.000000,,,,
7.076000000,13273.000000,,,,
7.080000000,13257.000000,1000.000000,111.500000,62.500000,
7.084000000,13247.000000,,,,
7.088000000,13252.000000,,,,
7.092000000,13299.000000,,,,
7.096000000,13426.000000,,,,
7.100000000,13616.000000,,,,
7.104000000,13874.000000,,,,
7.108000000,13968.000000,,,,
7.112000000,13631.000000,,,,
7.116000000,13004.000000,,,,
7.120000000,12457.000000,1003.500000,133.000000,61.000000,
7.124000000,11986.000000,,,,
7.128000000,11745.000000,,,,
7.132000000,11624.000000,,,,
7.136000000,11556.000000,,,,
7.140000000,11537.000000,,,,
7.144000000,11625.000000,,,,
7.148000000,11835.000000,,,,
7.152000000,12169.000000,,,,
7.156000000,12504.000000,,,,
7.160000000,12810.000000,1000.000000,131.000000,59.000000,
7.164000000,13071.000000,,,,
7.168000000,13185.000000,,,,
7.172000000,13201.000000,,,,
7.176000000,13192.000000,,,,
7.180000000,13192.000000,,,,
7.184000000,13190.000000,,,,
7.188000000,13184.000000,,,,
7.192000000,13173.000000,,,,
7.196000000,13155.000000,,,,
7.200000000,13139.000000,988.000000,121.500000,78.500000,
7.204000000,13124.000000,,,,
7.208000000,13105.000000,,,,
7.212000000,13095.000000,,,,
7.216000000,13087.000000,,,,
7.220000000,13075.000000,,,,
7.224000000,13055.000000,,,,
7.228000000,13031.000000,,,,
7.232000000,13013.000000,,,,
7.236000000,12999.000000,,,,
7.240000000,12985.000000,986.000000,119.500000,84.000000,
7.244000000,12973.000000,,,,
7.248000000,12953.000000,,,,
7.252000000,12937.000000,,,,
7.256000000,12923.000000,,,,
7.260000000,12911.000000,,,,
7.264000000,12898.000000,,,,
7.268000000,12891.000000,,,,
7.272000000,12879.000000,,,,
7.276000000,12871.000000,,,,
7.280000000,12861.000000,980.000000,111.500000,98.000000,
7.284000000,12850.000000,,,,
7.288000000,12840.000000,,,,
7.292000000,12821.000000,,,,
7.296000000,12802.000000,,,,
7.300000000,12792.000000,,,,
7.304000000,12785.000000,,,,
7.308000000,12774.000000,,,,
7.312000000,12758.000000,,,,
7.316000000,12744.000000,,,,
7.320000000,12730.000000,982.000000,104.000000,107.500000,
7.324000000,12716.000000,,,,
7.328000000,12701.000000,,,,
7.332000000,12682.000000,,,,
7.336000000,12654.000000,,,,
7.340000000,12625.000000,,,,
7.344000000,12601.000000,,,,
7.348000000,12573.000000,,,,
7.352000000,12544.000000,,,,
7.356000000,12514.000000,,,,
7.360000000,12479.000000,978.500000,102.000000,115.500000,
7.364000000,12452.000000,,,,
7.368000000,12428.000000,,,,
7.372000000,12405.000000,,,,
7.376000000,12387.000000,,,,
7.380000000,12372.000000,,,,
7.384000000,12351.000000,,,,
7.388000000,12325.000000,,,,
7.392000000,12300.000000,,,,
7.396000000,12277.000000,,,,
7.400000000,12252.000000,966.500000,104.000000,125.000000,
7.404000000,12227.000000,,,,
7.408000000,12197.000000,,,,
7.412000000,12164.000000,,,,
7.416000000,12138.000000,,,,
7.420000000,12114.000000,,,,
7.424000000,12092.000000,,,,
7.428000000,12074.000000,,,,
7.432000000,12055.000000,,,,
7.436000000,12037.000000,,,,
7.440000000,12021.000000,951.000000,113.500000,127.000000,
7.444000000,12000.000000,,,,
7.448000000,11985.000000,,,,
7.452000000,11972.000000,,,,
7.456000000,11959.000000,,,,
7.460000000,11946.000000,,,,
7.464000000,11934.000000,,,,
7.468000000,11921.000000,,,,
7.472000000,11914.000000,,,,
7.476000000,11902.000000,,,,
7.480000000,11880.000000,953.000000,115.500000,137.000000,
7.484000000,11857.000000,,,,
7.488000000,11844.000000,,,,
7.492000000,11840.000000,,,,
7.496000000,11826.000000,,,,
7.500000000,11808.000000,,,,
7.504000000,11790.000000,,,,
7.508000000,11775.000000,,,,
7.512000000,11763.000000,,,,
7.516000000,11750.000000,,,,
7.520000000,11737.000000,949.000000,113.500000,139.000000,
7.524000000,11723.000000,,,,
7.528000000,11711.000000,,,,
7.532000000,11698.000000,,,,
7.536000000,11680.000000,,,,
7.540000000,11668.000000,,,,
7.544000000,11655.000000,,,,
7.548000000,11644.000000,,,,
7.552000000,11633.000000,,,,
7.556000000,11618.000000,,,,
7.560000000,11604.000000,972.500000,109.500000,160.500000,
7.564000000,11589.000000,,,,
7.568000000,11574.000000,,,,
7.572000000,11559.000000,,,,
7.576000000,11548.000000,,,,
7.580000000,11533.000000,,,,
7.584000000,11523.000000,,,,
7.588000000,11513.000000,,,,
7.592000000,11498.000000,,,,
7.596000000,11483.000000,,,,
7.600000000,11467.000000,964.500000,92.000000,154.500000,
7.604000000,11449.000000,,,,
7.608000000,11428.000000,,,,
7.612000000,11405.000000,,,,
7.616000000,11385.000000,,,,
7.620000000,11366.000000,,,,
7.624000000,11341.000000,,,,
7.628000000,11318.000000,,,,
7.632000000,11301.000000,,,,
7.636000000,11286.000000,,,,
7.640000000,11264.000000,974.500000,45.000000,150.500000,
7.644000000,11242.000000,,,,
7.648000000,11227.000000,,,,
7.652000000,11213.000000,,,,
7.656000000,11198.000000,,,,
7.660000000,11191.000000,,,,
7.664000000,11175.000000,,,,
7.668000000,11161.000000,,,,
7.672000000,11146.000000,,,,
7.676000000,11148.000000,,,,
7.680000000,11147.000000,974.500000,17.500000,162.500000,
7.684000000,11133.000000,,,,
7.688000000,11126.000000,,,,
7.692000000,11111.000000,,,,
7.696000000,11100.000000,,,,
7.700000000,11086.000000,,,,
7.704000000,11074.000000,,,,
7.708000000,11059.000000,,,,
7.712000000,11045.000000,,,,
7.716000000,11031.000000,,,,
7.720000000,11016.000000,955.000000,87.500000,158.500000,
7.724000000,11001.000000,,,,
7.728000000,10997.000000,,,,
7.732000000,10983.000000,,,,
7.736000000,10975.000000,,,,
7.740000000,10960.000000,,,,
7.744000000,10964.000000,,,,
7.748000000,10950.000000,,,,
7.752000000,10942.000000,,,,
7.756000000,10931.000000,,,,
7.760000000,10917.000000,958.500000,136.500000,152.500000,
7.764000000,10903.000000,,,,
7.768000000,10893.000000,,,,
7.772000000,10882.000000,,,,
7.776000000,10869.000000,,,,
7.780000000,10862.000000,,,,
7.784000000,10852.000000,,,,
7.788000000,10841.000000,,,,
7.792000000,10840.000000,,,,
7.796000000,10825.000000,,,,
7.800000000,10811.000000,960.500000,191.000000,160.500000,
7.804000000,10807.000000,,,,
7.808000000,10800.000000,,,,
7.812000000,10796.000000,,,,
7.816000000,10783.000000,,,,
7.820000000,10776.000000,,,,
7.824000000,10765.000000,,,,
7.828000000,10783.000000,,,,
7.832000000,10769.000000,,,,
7.836000000,10783.000000,,,,
7.840000000,10813.000000,972.500000,238.000000,152.500000,
7.844000000,10911.000000,,,,
7.848000000,10898.000000,,,,
7.852000000,10925.000000,,,,
7.856000000,10947.000000,,,,
7.860000000,10964.000000,,,,
7.864000000,10982.000000,,,,
7.868000000,11000.000000,,,,
7.872000000,11009.000000,,,,
7.876000000,11012.000000,,,,
7.880000000,10949.000000,974.500000,277.000000,143.000000,
7.884000000,10936.000000,,,,
7.888000000,10852.000000,,,,
7.892000000,10778.000000,,,,
7.896000000,10739.000000,,,,
7.900000000,10725.000000,,,,
7.904000000,10710.000000,,,,
7.908000000,10683.000000,,,,
7.912000000,10603.000000,,,,
7.916000000,10589.000000,,,,
7.920000000,10571.000000,964.500000,283.000000,141.000000,
7.924000000,10550.000000,,,,
7.928000000,10531.000000,,,,
7.932000000,10517.000000,,,,
7.936000000,10514.000000,,,,
7.940000000,10499.000000,,,,
7.944000000,10476.000000,,,,
7.948000000,10451.000000,,,,
7.952000000,10426.000000,,,,
7.956000000,10411.000000,,,,
7.960000000,10396.000000,941.000000,294.500000,150.500000,
7.964000000,10371.000000,,,,
7.968000000,10356.000000,,,,
7.972000000,10342.000000,,,,
7.976000000,10333.000000,,,,
7.980000000,10468.000000,,,,
7.984000000,10666.000000,,,,
7.988000000,10652.000000,,,,
7.992000000,10906.000000,,,,
7.996000000,10553.000000,,,,
8.000000000,9835.000000,929.500000,310.500000,145.000000,0.000000
8.004000000,9823.000000,,,,
8.008000000,9156.000000,,,,
8.012000000,8471.000000,,,,
8.016000000,8326.000000,,,,
8.020000000,8317.000000,,,,
8.024000000,8191.000000,,,,
8.028000000,8223.000000,,,,
8.032000000,8884.000000,,,,
8.036000000,8873.000000,,,,
8.040000000,9397.000000,916.000000,320.000000,143.000000,
8.044000000,9864.000000,,,,
8.048000000,10411.000000,,,,
8.052000000,10446.000000,,,,
8.056000000,10430.000000,,,,
8.060000000,10417.000000,,,,
8.064000000,10403.000000,,,,
8.068000000,10400.000000,,,,
8.072000000,10406.000000,,,,
8.076000000,10401.000000,,,,
8.080000000,10388.000000,914.000000,324.000000,152.500000,
8.084000000,10355.000000,,,,
8.088000000,10323.000000,,,,
8.092000000,10309.000000,,,,
8.096000000,10298.000000,,,,
8.100000000,10283.000000,,,,
8.104000000,10257.000000,,,,
8.108000000,10236.000000,,,,
8.112000000,10224.000000,,,,
8.116000000,10238.000000,,,,
8.120000000,10228.000000,921.500000,343.500000,170.000000,
8.124000000,10210.000000,,,,
8.128000000,10198.000000,,,,
8.132000000,10185.000000,,,,
8.136000000,10191.000000,,,,
8.140000000,10193.000000,,,,
8.144000000,10198.000000,,,,
8.148000000,10202.000000,,,,
8.152000000,10207.000000,,,,
8.156000000,10221.000000,,,,
8.160000000,10228.000000,917.500000,349.500000,178.000000,
8.164000000,10226.000000,,,,
8.168000000,10226.000000,,,,
8.172000000,10235.000000,,,,
8.176000000,10240.000000,,,,
8.180000000,10244.000000,,,,
8.184000000,10244.000000,,,,
8.188000000,10253.000000,,,,
8.192000000,10264.000000,,,,
8.196000000,10269.000000,,,,
8.200000000,10271.000000,912.000000,349.500000,180.000000,
8.204000000,10272.000000,,,,
8.208000000,10268.000000,,,,
8.212000000,10262.000000,,,,
8.216000000,10251.000000,,,,
8.220000000,10238.000000,,,,
8.224000000,10217.000000,,,,
8.228000000,10195.000000,,,,
8.232000000,10170.000000,,,,
8.236000000,10148.000000,,,,
8.240000000,10123.000000,908.000000,349.500000,180.000000,
8.244000000,10093.000000,,,,
8.248000000,10065.000000,,,,
8.252000000,10034.000000,,,,
8.256000000,9998.000000,,,,
8.260000000,9966.000000,,,,
8.264000000,9940.000000,,,,
8.268000000,9912.000000,,,,
8.272000000,9886.000000,,,,
8.276000000,9857.000000,,,,
8.280000000,9845.000000,912.000000,345.500000,189.500000,
8.284000000,9809.000000,,,,
8.288000000,9787.000000,,,,
8.292000000,9765.000000,,,,
8.296000000,9739.000000,,,,
8.300000000,9719.000000,,,,
8.304000000,9702.000000,,,,
8.308000000,9682.000000,,,,
8.312000000,9655.000000,,,,
8.316000000,9622.000000,,,,
8.320000000,9583.000000,949.000000,314.000000,207.500000,
8.324000000,9551.000000,,,,
8.328000000,9522.000000,,,,
8.332000000,9489.000000,,,,
8.336000000,9453.000000,,,,
8.340000000,9419.000000,,,,
8.344000000,9378.000000,,,,
8.348000000,9367.000000,,,,
8.352000000,9287.000000,,,,
8.356000000,9247.000000,,,,
8.360000000,9210.000000,933.500000,261.500000,232.500000,
8.364000000,9199.000000,,,,
8.368000000,9153.000000,,,,
8.372000000,9112.000000,,,,
8.376000000,9061.000000,,,,
8.380000000,9013.000000,,,,
8.384000000,8981.000000,,,,
8.388000000,8967.000000,,,,
8.392000000,8952.000000,,,,
8.396000000,8923.000000,,,,
8.400000000,8889.000000,916.000000,240.000000,229.000000,
8.404000000,8865.000000,,,,
8.408000000,8865.000000,,,,
8.412000000,8865.000000,,,,
8.416000000,8865.000000,,,,
8.420000000,8868.000000,,,,
8.424000000,8869.000000,,,,
8.428000000,8878.000000,,,,
8.432000000,8866.000000,,,,
8.436000000,8891.000000,,,,
8.440000000,8887.000000,908.000000,212.500000,244.500000,
8.444000000,8889.000000,,,,
8.448000000,8878.000000,,,,
8.452000000,8869.000000,,,,
8.456000000,8842.000000,,,,
8.460000000,8820.000000,,,,
8.464000000,8798.000000,,,,
8.468000000,8773.000000,,,,
8.472000000,8745.000000,,,,
8.476000000,8714.000000,,,,
8.480000000,8686.000000,923.500000,189.000000,262.000000,
8.484000000,8672.000000,,,,
8.488000000,8660.000000,,,,
8.492000000,8640.000000,,,,
8.496000000,8624.000000,,,,
8.500000000,8614.000000,,,,
8.504000000,8610.000000,,,,
8.508000000,8607.000000,,,,
8.512000000,8605.000000,,,,
8.516000000,8599.000000,,,,
8.520000000,8595.000000,937.500000,160.000000,262.000000,
8.524000000,8594.000000,,,,
8.528000000,8587.000000,,,,
8.532000000,8576.000000,,,,
8.536000000,8565.000000,,,,
8.540000000,8551.000000,,,,
8.544000000,8534.000000,,,,
8.548000000,8519.000000,,,,
8.552000000,8507.000000,,,,
8.556000000,8497.000000,,,,
8.560000000,8489.000000,929.500000,136.500000,273.500000,
8.564000000,8481.000000,,,,
8.568000000,8470.000000,,,,
8.572000000,8461.000000,,,,
8.576000000,8456.000000,,,,
8.580000000,8448.000000,,,,
8.584000000,8443.000000,,,,
8.588000000,8445.000000,,,,
8.592000000,8446.000000,,,,
8.596000000,8441.000000,,,,
8.600000000,8431.000000,931.500000,115.000000,277.500000,
8.604000000,8431.000000,,,,
8.608000000,8428.000000,,,,
8.612000000,8431.000000,,,,
8.616000000,8424.000000,,,,
8.620000000,8413.000000,,,,
8.624000000,8405.000000,,,,
8.628000000,8399.000000,,,,
8.632000000,8390.000000,,,,
8.636000000,8380.000000,,,,
8.640000000,8380.000000,935.500000,93.500000,277.500000,
8.644000000,8368.000000,,,,
8.648000000,8353.000000,,,,
8.652000000,8348.000000,,,,
8.656000000,8361.000000,,,,
8.660000000,8380.000000,,,,
8.664000000,8401.000000,,,,
8.668000000,8424.000000,,,,
8.672000000,8442.000000,,,,
8.676000000,8460.000000,,,,
8.680000000,8470.000000,941.000000,66.000000,275.500000,
8.684000000,8475.000000,,,,
8.688000000,8496.000000,,,,
8.692000000,8525.000000,,,,
8.696000000,8539.000000,,,,
8.700000000,8528.000000,,,,
8.704000000,8490.000000,,,,
8.708000000,8423.000000,,,,
8.712000000,8353.000000,,,,
8.716000000,8296.000000,,,,
8.720000000,8275.000000,945.000000,48.500000,271.500000,
8.724000000,8271.000000,,,,
8.728000000,8256.000000,,,,
8.732000000,8216.000000,,,,
8.736000000,8166.000000,,,,
8.740000000,8139.000000,,,,
8.744000000,8122.000000,,,,
8.748000000,8103.000000,,,,
8.752000000,8089.000000,,,,
8.756000000,8085.000000,,,,
8.760000000,8082.000000,941.000000,42.500000,266.000000,
8.764000000,8073.000000,,,,
8.768000000,8060.000000,,,,
8.772000000,8053.000000,,,,
8.776000000,8052.000000,,,,
8.780000000,8045.000000,,,,
8.784000000,8042.000000,,,,
8.788000000,8041.000000,,,,
8.792000000,8034.000000,,,,
8.796000000,8034.000000,,,,
8.800000000,8048.000000,941.000000,33.000000,268.000000,
8.804000000,8091.000000,,,,
8.808000000,8209.000000,,,,
8.812000000,8408.000000,,,,
8.816000000,8683.000000,,,,
8.820000000,8838.000000,,,,
8.824000000,8565.000000,,,,
8.828000000,7960.000000,,,,
8.832000000,7395.000000,,,,
8.836000000,7026.000000,,,,
8.840000000,6822.000000,943.000000,33.000000,271.500000,
8.844000000,6598.000000,,,,
8.848000000,6410.000000,,,,
8.852000000,6346.000000,,,,
8.856000000,6456.000000,,,,
8.860000000,6739.000000,,,,
8.864000000,7163.000000,,,,
8.868000000,7578.000000,,,,
8.872000000,7916.000000,,,,
8.876000000,8085.000000,,,,
8.880000000,8125.000000,953.000000,27.000000,273.500000,
8.884000000,8133.000000,,,,
8.888000000,8128.000000,,,,
8.892000000,8118.000000,,,,
8.896000000,8125.000000,,,,
8.900000000,8129.000000,,,,
8.904000000,8132.000000,,,,
8.908000000,8132.000000,,,,
8.912000000,8117.000000,,,,
8.916000000,8102.000000,,,,
8.920000000,8085.000000,939.000000,25.000000,281.500000,
8.924000000,8066.000000,,,,
8.928000000,8055.000000,,,,
8.932000000,8042.000000,,,,
8.936000000,8034.000000,,,,
8.940000000,8027.000000,,,,
8.944000000,8027.000000,,,,
8.948000000,8011.000000,,,,
8.952000000,7993.000000,,,,
8.956000000,7982.000000,,,,
8.960000000,7979.000000,951.000000,17.500000,270.000000,
8.964000000,7972.000000,,,,
8.968000000,7968.000000,,,,
8.972000000,7971.000000,,,,
8.976000000,7971.000000,,,,
8.980000000,7969.000000,,,,
8.984000000,7964.000000,,,,
8.988000000,7950.000000,,,,
8.992000000,7943.000000,,,,
8.996000000,7938.000000,,,,
9.000000000,7942.000000,955.000000,5.500000,262.000000,0.000000
9.004000000,7939.000000,,,,
9.008000000,7928.000000,,,,
9.012000000,7921.000000,,,,
9.016000000,7918.000000,,,,
9.020000000,7916.000000,,,,
9.024000000,7903.000000,,,,
9.028000000,7885.000000,,,,
9.032000000,7863.000000,,,,
9.036000000,7837.000000,,,,
9.040000000,7808.000000,957.000000,9.500000,266.000000,
9.044000000,7778.000000,,,,
9.048000000,7749.000000,,,,
9.052000000,7724.000000,,,,
9.056000000,7699.000000,,,,
9.060000000,7673.000000,,,,
9.064000000,7646.000000,,,,
9.068000000,7622.000000,,,,
9.072000000,7603.000000,,,,
9.076000000,7584.000000,,,,
9.080000000,7564.000000,949.000000,33.000000,268.000000,
9.084000000,7556.000000,,,,
9.088000000,7545.000000,,,,
9.092000000,7529.000000,,,,
9.096000000,7516.000000,,,,
9.100000000,7512.000000,,,,
9.104000000,7505.000000,,,,
9.108000000,7490.000000,,,,
9.112000000,7476.000000,,,,
9.116000000,7467.000000,,,,
9.120000000,7457.000000,951.000000,50.500000,271.500000,
9.124000000,7439.000000,,,,
9.128000000,7411.000000,,,,
9.132000000,7393.000000,,,,
9.136000000,7385.000000,,,,
9.140000000,7380.000000,,,,
9.144000000,7367.000000,,,,
9.148000000,7348.000000,,,,
9.152000000,7329.000000,,,,
9.156000000,7311.000000,,,,
9.160000000,7303.000000,951.000000,56.500000,273.500000,
9.164000000,7296.000000,,,,
9.168000000,7286.000000,,,,
9.172000000,7274.000000,,,,
9.176000000,7267.000000,,,,
9.180000000,7258.000000,,,,
9.184000000,7250.000000,,,,
9.188000000,7246.000000,,,,
9.192000000,7243.000000,,,,
9.196000000,7246.000000,,,,
9.200000000,7246.000000,960.500000,48.500000,268.000000,
9.204000000,7232.000000,,,,
9.208000000,7212.000000,,,,
9.212000000,7202.000000,,,,
9.216000000,7207.000000,,,,
9.220000000,7206.000000,,,,
9.224000000,7184.000000,,,,
9.228000000,7162.000000,,,,
9.232000000,7155.000000,,,,
9.236000000,7156.000000,,,,
9.240000000,7148.000000,960.500000,29.000000,254.000000,
9.244000000,7139.000000,,,,
9.248000000,7130.000000,,,,
9.252000000,7129.000000,,,,
9.256000000,7122.000000,,,,
9.260000000,7112.000000,,,,
9.264000000,7103.000000,,,,
9.268000000,7092.000000,,,,
9.272000000,7071.000000,,,,
9.276000000,7060.000000,,,,
9.280000000,7053.000000,953.000000,2.000000,248.500000,
9.284000000,7045.000000,,,,
9.288000000,7039.000000,,,,
9.292000000,7028.000000,,,,
9.296000000,7020.000000,,,,
9.300000000,7008.000000,,,,
9.304000000,6992.000000,,,,
9.308000000,6977.000000,,,,
9.312000000,6961.000000,,,,
9.316000000,6944.000000,,,,
9.320000000,6937.000000,951.000000,27.500000,242.500000,
9.324000000,6932.000000,,,,
9.328000000,6921.000000,,,,
9.332000000,6910.000000,,,,
9.336000000,6893.000000,,,,
9.340000000,6884.000000,,,,
9.344000000,6880.000000,,,,
9.348000000,6873.000000,,,,
9.352000000,6870.000000,,,,
9.356000000,6863.000000,,,,
9.360000000,6855.000000,953.000000,41.500000,236.500000,
9.364000000,6848.000000,,,,
9.368000000,6840.000000,,,,
9.372000000,6822.000000,,,,
9.376000000,6804.000000,,,,
9.380000000,6797.000000,,,,
9.384000000,6784.000000,,,,
9.388000000,6773.000000,,,,
9.392000000,6758.000000,,,,
9.396000000,6747.000000,,,,
9.400000000,6740.000000,951.000000,49.000000,234.500000,
9.404000000,6732.000000,,,,
9.408000000,6721.000000,,,,
9.412000000,6702.000000,,,,
9.416000000,6692.000000,,,,
9.420000000,6685.000000,,,,
9.424000000,6680.000000,,,,
9.428000000,6682.000000,,,,
9.432000000,6695.000000,,,,
9.436000000,6724.000000,,,,
9.440000000,6750.000000,957.000000,59.000000,236.500000,
9.444000000,6765.000000,,,,
9.448000000,6779.000000,,,,
9.452000000,6794.000000,,,,
9.456000000,6809.000000,,,,
9.460000000,6823.000000,,,,
9.464000000,6840.000000,,,,
9.468000000,6848.000000,,,,
9.472000000,6830.000000,,,,
9.476000000,6789.000000,,,,
9.480000000,6731.000000,958.500000,53.000000,230.500000,
9.484000000,6667.000000,,,,
9.488000000,6627.000000,,,,
9.492000000,6609.000000,,,,
9.496000000,6596.000000,,,,
9.500000000,6578.000000,,,,
9.504000000,6532.000000,,,,
9.508000000,6483.000000,,,,
9.512000000,6463.000000,,,,
9.516000000,6451.000000,,,,
9.520000000,6434.000000,960.500000,39.500000,227.000000,
9.524000000,6418.000000,,,,
9.528000000,6407.000000,,,,
9.532000000,6403.000000,,,,
9.536000000,6403.000000,,,,
9.540000000,6394.000000,,,,
9.544000000,6385.000000,,,,
9.548000000,6379.000000,,,,
9.552000000,6375.000000,,,,
9.556000000,6375.000000,,,,
9.560000000,6379.000000,957.000000,21.500000,230.500000,
9.564000000,6374.000000,,,,
9.568000000,6371.000000,,,,
9.572000000,6381.000000,,,,
9.576000000,6428.000000,,,,
9.580000000,6543.000000,,,,
9.584000000,6753.000000,,,,
9.588000000,7061.000000,,,,
9.592000000,7210.000000,,,,
9.596000000,6902.000000,,,,
9.600000000,6280.000000,957.000000,14.000000,236.500000,
9.604000000,5723.000000,,,,
9.608000000,5305.000000,,,,
9.612000000,5072.000000,,,,
9.616000000,4895.000000,,,,
9.620000000,4777.000000,,,,
9.624000000,4745.000000,,,,
9.628000000,4833.000000,,,,
9.632000000,5051.000000,,,,
9.636000000,5420.000000,,,,
9.640000000,5816.000000,962.500000,8.000000,252.000000,
9.644000000,6166.000000,,,,
9.648000000,6393.000000,,,,
9.652000000,6468.000000,,,,
9.656000000,6477.000000,,,,
9.660000000,6468.000000,,,,
9.664000000,6461.000000,,,,
9.668000000,6461.000000,,,,
9.672000000,6463.000000,,,,
9.676000000,6456.000000,,,,
9.680000000,6451.000000,962.500000,8.000000,248.500000,
9.684000000,6439.000000,,,,
9.688000000,6422.000000,,,,
9.692000000,6417.000000,,,,
9.696000000,6405.000000,,,,
9.700000000,6388.000000,,,,
9.704000000,6370.000000,,,,
9.708000000,6355.000000,,,,
9.712000000,6342.000000,,,,
9.716000000,6338.000000,,,,
9.720000000,6339.000000,962.500000,0.000000,246.500000,
9.724000000,6335.000000,,,,
9.728000000,6323.000000,,,,
9.732000000,6304.000000,,,,
9.736000000,6297.000000,,,,
9.740000000,6297.000000,,,,
9.744000000,6297.000000,,,,
9.748000000,6293.000000,,,,
9.752000000,6283.000000,,,,
9.756000000,6280.000000,,,,
9.760000000,6286.000000,962.500000,3.500000,230.500000,
9.764000000,6284.000000,,,,
9.768000000,6276.000000,,,,
9.772000000,6270.000000,,,,
9.776000000,6269.000000,,,,
9.780000000,6277.000000,,,,
9.784000000,6280.000000,,,,
9.788000000,6270.000000,,,,
9.792000000,6258.000000,,,,
9.796000000,6248.000000,,,,
9.800000000,6239.000000,966.500000,3.500000,223.000000,
9.804000000,6232.000000,,,,
9.808000000,6226.000000,,,,
9.812000000,6207.000000,,,,
9.816000000,6181.000000,,,,
9.820000000,6156.000000,,,,
9.824000000,6140.000000,,,,
9.828000000,6113.000000,,,,
9.832000000,6075.000000,,,,
9.836000000,6051.000000,,,,
9.840000000,6036.000000,964.500000,2.000000,215.000000,
9.844000000,6016.000000,,,,
9.848000000,5992.000000,,,,
9.852000000,5977.000000,,,,
9.856000000,5959.000000,,,,
9.860000000,5943.000000,,,,
9.864000000,5936.000000,,,,
9.868000000,5933.000000,,,,
9.872000000,5926.000000,,,,
9.876000000,5911.000000,,,,
9.880000000,5894.000000,968.500000,2.000000,213.000000,
9.884000000,5879.000000,,,,
9.888000000,5864.000000,,,,
9.892000000,5849.000000,,,,
9.896000000,5831.000000,,,,
9.900000000,5816.000000,,,,
9.904000000,5806.000000,,,,
9.908000000,5795.000000,,,,
9.912000000,5785.000000,,,,
9.916000000,5772.000000,,,,
9.920000000,5761.000000,968.500000,2.000000,213.000000,
9.924000000,5751.000000,,,,
9.928000000,5739.000000,,,,
9.932000000,5729.000000,,,,
9.936000000,5721.000000,,,,
9.940000000,5717.000000,,,,
9.944000000,5715.000000,,,,
9.948000000,5717.000000,,,,
9.952000000,5701.000000,,,,
9.956000000,5690.000000,,,,
9.960000000,5696.000000,970.500000,6.000000,205.500000,
9.964000000,5704.000000,,,,
9.968000000,5707.000000,,,,
9.972000000,5704.000000,,,,
9.976000000,5692.000000,,,,
9.980000000,5678.000000,,,,
9.984000000,5670.000000,,,,
9.988000000,5672.000000,,,,
9.992000000,5674.000000,,,,
9.996000000,5666.000000,,,,
10.000000000,5650.000000,970.500000,8.000000,203.500000,0.000000
10.004000000,5641.000000,,,,
10.008000000,5635.000000,,,,
10.012000000,5635.000000,,,,
10.016000000,5628.000000,,,,
10.020000000,5626.000000,,,,
10.024000000,5621.000000,,,,
10.028000000,5615.000000,,,,
10.032000000,5606.000000,,,,
10.036000000,5599.000000,,,,
10.040000000,5590.000000,972.500000,12.000000,207.500000,
10.044000000,5577.000000,,,,
10.048000000,5576.000000,,,,
10.052000000,5576.000000,,,,
10.056000000,5568.000000,,,,
10.060000000,5555.000000,,,,
10.064000000,5554.000000,,,,
10.068000000,5550.000000,,,,
10.072000000,5543.000000,,,,
10.076000000,5525.000000,,,,
10.080000000,5514.000000,968.500000,18.000000,209.000000,
10.084000000,5508.000000,,,,
10.088000000,5504.000000,,,,
10.092000000,5497.000000,,,,
10.096000000,5488.000000,,,,
10.100000000,5481.000000,,,,
10.104000000,5478.000000,,,,
10.108000000,5475.000000,,,,
10.112000000,5467.000000,,,,
10.116000000,5456.000000,,,,
10.120000000,5446.000000,962.500000,12.000000,205.500000,
10.124000000,5446.000000,,,,
10.128000000,5448.000000,,,,
10.132000000,5441.000000,,,,
10.136000000,5431.000000,,,,
10.140000000,5435.000000,,,,
10.144000000,5451.000000,,,,
10.148000000,5469.000000,,,,
10.152000000,5488.000000,,,,
10.156000000,5499.000000,,,,
10.160000000,5514.000000,964.500000,14.000000,203.500000,
10.164000000,5533.000000,,,,
10.168000000,5553.000000,,,,
10.172000000,5558.000000,,,,
10.176000000,5577.000000,,,,
10.180000000,5602.000000,,,,
10.184000000,5597.000000,,,,
10.188000000,5573.000000,,,,
10.192000000,5529.000000,,,,
10.196000000,5462.000000,,,,
10.200000000,5406.000000,968.500000,18.000000,203.500000,
10.204000000,5391.000000,,,,
10.208000000,5378.000000,,,,
10.212000000,5365.000000,,,,
10.216000000,5339.000000,,,,
10.220000000,5291.000000,,,,
10.224000000,5266.000000,,,,
10.228000000,5252.000000,,,,
10.232000000,5231.000000,,,,
10.236000000,5214.000000,,,,
10.240000000,5205.000000,962.500000,14.000000,203.500000,
10.244000000,5200.000000,,,,
10.248000000,5196.000000,,,,
10.252000000,5182.000000,,,,
10.256000000,5168.000000,,,,
10.260000000,5168.000000,,,,
10.264000000,5172.000000,,,,
10.268000000,5169.000000,,,,
10.272000000,5164.000000,,,,
10.276000000,5154.000000,,,,
10.280000000,5149.000000,962.500000,12.000000,203.500000,
10.284000000,5152.000000,,,,
10.288000000,5176.000000,,,,
10.292000000,5241.000000,,,,
10.296000000,5376.000000,,,,
10.300000000,5566.000000,,,,
10.304000000,5827.000000,,,,
10.308000000,5977.000000,,,,
10.312000000,5762.000000,,,,
10.316000000,5212.000000,,,,
10.320000000,4723.000000,962.500000,8.000000,205.500000,
10.324000000,4252.000000,,,,
10.328000000,3961.000000,,,,
10.332000000,3816.000000,,,,
10.336000000,3739.000000,,,,
10.340000000,3684.000000,,,,
10.344000000,3721.000000,,,,
10.348000000,3869.000000,,,,
10.352000000,4155.000000,,,,
10.356000000,4486.000000,,,,
10.360000000,4814.000000,960.500000,14.000000,205.500000,
10.364000000,5094.000000,,,,
10.368000000,5219.000000,,,,
10.372000000,5249.000000,,,,
10.376000000,5251.000000,,,,
10.380000000,5245.000000,,,,
10.384000000,5248.000000,,,,
10.388000000,5263.000000,,,,
10.392000000,5269.000000,,,,
10.396000000,5260.000000,,,,
10.400000000,5251.000000,960.500000,23.500000,209.000000,
10.404000000,5243.000000,,,,
10.408000000,5240.000000,,,,
10.412000000,5236.000000,,,,
10.416000000,5223.000000,,,,
10.420000000,5212.000000,,,,
10.424000000,5205.000000,,,,
10.428000000,5201.000000,,,,
10.432000000,5201.000000,,,,
10.436000000,5200.000000,,,,
10.440000000,5201.000000,960.500000,27.500000,209.000000,
10.444000000,5204.000000,,,,
10.448000000,5204.000000,,,,
10.452000000,5201.000000,,,,
10.456000000,5201.000000,,,,
10.460000000,5205.000000,,,,
10.464000000,5200.000000,,,,
10.468000000,5192.000000,,,,
10.472000000,5185.000000,,,,
10.476000000,5179.000000,,,,
10.480000000,5174.000000,957.000000,33.500000,203.500000,
10.484000000,5174.000000,,,,
10.488000000,5171.000000,,,,
10.492000000,5158.000000,,,,
10.496000000,5149.000000,,,,
10.500000000,5153.000000,,,,
10.504000000,5153.000000,,,,
10.508000000,5147.000000,,,,
10.512000000,5143.000000,,,,
10.516000000,5138.000000,,,,
10.520000000,5128.000000,955.000000,43.000000,205.500000,
10.524000000,5116.000000,,,,
10.528000000,5103.000000,,,,
10.532000000,5085.000000,,,,
10.536000000,5065.000000,,,,
10.540000000,5037.000000,,,,
10.544000000,5012.000000,,,,
10.548000000,4986.000000,,,,
10.552000000,4963.000000,,,,
10.556000000,4941.000000,,,,
10.560000000,4923.000000,955.000000,53.000000,195.500000,
10.564000000,4916.000000,,,,
10.568000000,4912.000000,,,,
10.572000000,4904.000000,,,,
10.576000000,4901.000000,,,,
10.580000000,4901.000000,,,,
10.584000000,4899.000000,,,,
10.588000000,4893.000000,,,,
10.592000000,4880.000000,,,,
10.596000000,4865.000000,,,,
10.600000000,4848.000000,949.000000,59.000000,182.000000,
10.604000000,4836.000000,,,,
10.608000000,4825.000000,,,,
10.612000000,4811.000000,,,,
10.616000000,4797.000000,,,,
10.620000000,4786.000000,,,,
10.624000000,4774.000000,,,,
10.628000000,4760.000000,,,,
10.632000000,4751.000000,,,,
10.636000000,4745.000000,,,,
10.640000000,4734.000000,945.000000,62.500000,176.000000,
10.644000000,4723.000000,,,,
10.648000000,4709.000000,,,,
10.652000000,4701.000000,,,,
10.656000000,4698.000000,,,,
10.660000000,4691.000000,,,,
10.664000000,4686.000000,,,,
10.668000000,4679.000000,,,,
10.672000000,4675.000000,,,,
10.676000000,4676.000000,,,,
10.680000000,4676.000000,947.000000,74.500000,164.500000,
10.684000000,4680.000000,,,,
10.688000000,4673.000000,,,,
10.692000000,4657.000000,,,,
10.696000000,4649.000000,,,,
10.700000000,4650.000000,,,,
10.704000000,4643.000000,,,,
10.708000000,4635.000000,,,,
10.712000000,4633.000000,,,,
10.716000000,4631.000000,,,,
10.720000000,4622.000000,955.000000,76.500000,164.500000,
10.724000000,4621.000000,,,,
10.728000000,4617.000000,,,,
10.732000000,4607.000000,,,,
10.736000000,4606.000000,,,,
10.740000000,4600.000000,,,,
10.744000000,4592.000000,,,,
10.748000000,4584.000000,,,,
10.752000000,4577.000000,,,,
10.756000000,4567.000000,,,,
10.760000000,4556.000000,960.500000,82.500000,145.000000,
10.764000000,4549.000000,,,,
10.768000000,4538.000000,,,,
10.772000000,4529.000000,,,,
10.776000000,4526.000000,,,,
10.780000000,4519.000000,,,,
10.784000000,4516.000000,,,,
10.788000000,4511.000000,,,,
10.792000000,4501.000000,,,,
10.796000000,4493.000000,,,,
10.800000000,4487.000000,962.500000,96.000000,137.000000,
10.804000000,4478.000000,,,,
10.808000000,4468.000000,,,,
10.812000000,4464.000000,,,,
10.816000000,4458.000000,,,,
10.820000000,4446.000000,,,,
10.824000000,4441.000000,,,,
10.828000000,4432.000000,,,,
10.832000000,4420.000000,,,,
10.836000000,4409.000000,,,,
10.840000000,4402.000000,962.500000,121.500000,121.500000,
10.844000000,4396.000000,,,,
10.848000000,4401.000000,,,,
10.852000000,4427.000000,,,,
10.856000000,4461.000000,,,,
10.860000000,4490.000000,,,,
10.864000000,4515.000000,,,,
10.868000000,4543.000000,,,,
10.872000000,4573.000000,,,,
10.876000000,4596.000000,,,,
10.880000000,4617.000000,978.500000,145.000000,104.000000,
10.884000000,4643.000000,,,,
10.888000000,4649.000000,,,,
10.892000000,4632.000000,,,,
10.896000000,4598.000000,,,,
10.900000000,4532.000000,,,,
10.904000000,4452.000000,,,,
10.908000000,4405.000000,,,,
10.912000000,4391.000000,,,,
10.916000000,4383.000000,,,,
10.920000000,4365.000000,988.000000,148.500000,92.000000,
10.924000000,4333.000000,,,,
10.928000000,4288.000000,,,,
10.932000000,4257.000000,,,,
10.936000000,4245.000000,,,,
10.940000000,4233.000000,,,,
10.944000000,4216.000000,,,,
10.948000000,4209.000000,,,,
10.952000000,4208.000000,,,,
10.956000000,4205.000000,,,,
10.960000000,4193.000000,986.000000,139.000000,76.500000,
10.964000000,4183.000000,,,,
10.968000000,4183.000000,,,,
10.972000000,4182.000000,,,,
10.976000000,4180.000000,,,,
10.980000000,4176.000000,,,,
10.984000000,4172.000000,,,,
10.988000000,4169.000000,,,,
10.992000000,4175.000000,,,,
10.996000000,4201.000000,,,,
11.000000000,4271.000000,982.000000,133.000000,68.500000,0.000000
11.004000000,4435.000000,,,,
11.008000000,4724.000000,,,,
11.012000000,4986.000000,,,,
11.016000000,4831.000000,,,,
11.020000000,4155.000000,,,,
11.024000000,3455.000000,,,,
11.028000000,2907.000000,,,,
11.032000000,2696.000000,,,,
11.036000000,2583.000000,,,,
11.040000000,2404.000000,984.000000,143.000000,62.500000,
11.044000000,2324.000000,,,,
11.048000000,2447.000000,,,,
11.052000000,2737.000000,,,,
11.056000000,3178.000000,,,,
11.060000000,3657.000000,,,,
11.064000000,4073.000000,,,,
11.068000000,4329.000000,,,,
11.072000000,4407.000000,,,,
11.076000000,4410.000000,,,,
11.080000000,4402.000000,974.500000,156.500000,53.000000,
11.084000000,4405.000000,,,,
11.088000000,4413.000000,,,,
11.092000000,4414.000000,,,,
11.096000000,4417.000000,,,,
11.100000000,4412.000000,,,,
11.104000000,4403.000000,,,,
11.108000000,4396.000000,,,,
11.112000000,4388.000000,,,,
11.116000000,4379.000000,,,,
11.120000000,4363.000000,970.500000,160.500000,41.500000,
11.124000000,4350.000000,,,,
11.128000000,4336.000000,,,,
11.132000000,4319.000000,,,,
11.136000000,4300.000000,,,,
11.140000000,4288.000000,,,,
11.144000000,4293.000000,,,,
11.148000000,4304.000000,,,,
11.152000000,4303.000000,,,,
11.156000000,4292.000000,,,,
11.160000000,4279.000000,978.500000,176.000000,53.000000,
11.164000000,4286.000000,,,,
11.168000000,4297.000000,,,,
11.172000000,4299.000000,,,,
11.176000000,4300.000000,,,,
11.180000000,4299.000000,,,,
11.184000000,4301.000000,,,,
11.188000000,4304.000000,,,,
11.192000000,4304.000000,,,,
11.196000000,4306.000000,,,,
11.200000000,4303.000000,962.500000,186.000000,39.500000,
11.204000000,4308.000000,,,,
11.208000000,4308.000000,,,,
11.212000000,4306.000000,,,,
11.216000000,4301.000000,,,,
11.220000000,4296.000000,,,,
11.224000000,4293.000000,,,,
11.228000000,4283.000000,,,,
11.232000000,4272.000000,,,,
11.236000000,4256.000000,,,,
11.240000000,4234.000000,955.000000,187.500000,33.500000,
11.244000000,4215.000000,,,,
11.248000000,4197.000000,,,,
11.252000000,4179.000000,,,,
11.256000000,4161.000000,,,,
11.260000000,4139.000000,,,,
11.264000000,4120.000000,,,,
11.268000000,4103.000000,,,,
11.272000000,4075.000000,,,,
11.276000000,4051.000000,,,,
11.280000000,4034.000000,935.500000,176.000000,35.500000,
11.284000000,4018.000000,,,,
11.288000000,3997.000000,,,,
11.292000000,3982.000000,,,,
11.296000000,3967.000000,,,,
11.300000000,3950.000000,,,,
11.304000000,3933.000000,,,,
11.308000000,3917.000000,,,,
11.312000000,3903.000000,,,,
11.316000000,3892.000000,,,,
11.320000000,3885.000000,927.500000,164.500000,31.500000,
11.324000000,3880.000000,,,,
11.328000000,3876.000000,,,,
11.332000000,3876.000000,,,,
11.336000000,3877.000000,,,,
11.340000000,3871.000000,,,,
11.344000000,3869.000000,,,,
11.348000000,3867.000000,,,,
11.352000000,3878.000000,,,,
11.356000000,3887.000000,,,,
11.360000000,3885.000000,958.500000,107.500000,35.500000,
11.364000000,3881.000000,,,,
11.368000000,3881.000000,,,,
11.372000000,3885.000000,,,,
11.376000000,3892.000000,,,,
11.380000000,3903.000000,,,,
11.384000000,3920.000000,,,,
11.388000000,3933.000000,,,,
11.392000000,3938.000000,,,,
11.396000000,3936.000000,,,,
11.400000000,3929.000000,960.500000,8.000000,62.500000,
11.404000000,3932.000000,,,,
11.408000000,3933.000000,,,,
11.412000000,3928.000000,,,,
11.416000000,3928.000000,,,,
11.420000000,3933.000000,,,,
11.424000000,3938.000000,,,,
11.428000000,3946.000000,,,,
11.432000000,3956.000000,,,,
11.436000000,3962.000000,,,,
11.440000000,3972.000000,1099.500000,93.500000,49.000000,
11.444000000,3979.000000,,,,
11.448000000,3978.000000,,,,
11.452000000,3978.000000,,,,
11.456000000,3987.000000,,,,
11.460000000,4001.000000,,,,
11.464000000,4037.000000,,,,
11.468000000,4089.000000,,,,
11.472000000,4135.000000,,,,
11.476000000,4151.000000,,,,
11.480000000,4107.000000,1058.500000,201.000000,104.000000,
11.484000000,4016.000000,,,,
11.488000000,3925.000000,,,,
11.492000000,3871.000000,,,,
11.496000000,3855.000000,,,,
11.500000000,3854.000000,,,,
11.504000000,3834.000000,,,,
11.508000000,3798.000000,,,,
11.512000000,3758.000000,,,,
11.516000000,3725.000000,,,,
11.520000000,3683.000000,1093.500000,146.000000,139.000000,
11.524000000,3626.000000,,,,
11.528000000,3559.000000,,,,
11.532000000,3493.000000,,,,
11.536000000,3451.000000,,,,
11.540000000,3426.000000,,,,
11.544000000,3404.000000,,,,
11.548000000,3397.000000,,,,
11.552000000,3414.000000,,,,
11.556000000,3459.000000,,,,
11.560000000,3523.000000,1058.500000,107.000000,176.000000,
11.564000000,3568.000000,,,,
11.568000000,3600.000000,,,,
11.572000000,3643.000000,,,,
11.576000000,3687.000000,,,,
11.580000000,3741.000000,,,,
11.584000000,3807.000000,,,,
11.588000000,3836.000000,,,,
11.592000000,3832.000000,,,,
11.596000000,3812.000000,,,,
11.600000000,3764.000000,1019.500000,115.000000,182.000000,
11.604000000,3708.000000,,,,
11.608000000,3668.000000,,,,
11.612000000,3657.000000,,,,
11.616000000,3647.000000,,,,
11.620000000,3619.000000,,,,
11.624000000,3575.000000,,,,
11.628000000,3517.000000,,,,
11.632000000,3483.000000,,,,
11.636000000,3459.000000,,,,
11.640000000,3432.000000,957.000000,132.500000,184.000000,
11.644000000,3408.000000,,,,
11.648000000,3396.000000,,,,
11.652000000,3397.000000,,,,
11.656000000,3399.000000,,,,
11.660000000,3389.000000,,,,
11.664000000,3375.000000,,,,
11.668000000,3366.000000,,,,
11.672000000,3363.000000,,,,
11.676000000,3358.000000,,,,
11.680000000,3353.000000,925.500000,105.000000,178.000000,
11.684000000,3360.000000,,,,
11.688000000,3367.000000,,,,
11.692000000,3369.000000,,,,
11.696000000,3396.000000,,,,
11.700000000,3472.000000,,,,
11.704000000,3644.000000,,,,
11.708000000,3935.000000,,,,
11.712000000,4230.000000,,,,
11.716000000,4131.000000,,,,
11.720000000,3483.000000,914.000000,80.000000,182.000000,
11.724000000,2743.000000,,,,
11.728000000,2195.000000,,,,
11.732000000,2054.000000,,,,
11.736000000,1985.000000,,,,
11.740000000,1802.000000,,,,
11.744000000,1679.000000,,,,
11.748000000,1765.000000,,,,
11.752000000,2018.000000,,,,
11.756000000,2415.000000,,,,
11.760000000,2878.000000,937.500000,89.500000,184.000000,
11.764000000,3289.000000,,,,
11.768000000,3561.000000,,,,
11.772000000,3662.000000,,,,
11.776000000,3677.000000,,,,
11.780000000,3668.000000,,,,
11.784000000,3663.000000,,,,
11.788000000,3663.000000,,,,
11.792000000,3674.000000,,,,
11.796000000,3674.000000,,,,
11.800000000,3670.000000,937.500000,95.500000,187.500000,
11.804000000,3662.000000,,,,
11.808000000,3650.000000,,,,
11.812000000,3640.000000,,,,
11.816000000,3644.000000,,,,
11.820000000,3650.000000,,,,
11.824000000,3651.000000,,,,
11.828000000,3647.000000,,,,
11.832000000,3636.000000,,,,
11.836000000,3630.000000,,,,
11.840000000,3634.000000,933.500000,89.500000,199.500000,
11.844000000,3639.000000,,,,
11.848000000,3629.000000,,,,
11.852000000,3615.000000,,,,
11.856000000,3604.000000,,,,
11.860000000,3596.000000,,,,
11.864000000,3588.000000,,,,
11.868000000,3586.000000,,,,
11.872000000,3593.000000,,,,
11.876000000,3599.000000,,,,
11.880000000,3597.000000,923.500000,91.500000,193.500000,
11.884000000,3592.000000,,,,
11.888000000,3588.000000,,,,
11.892000000,3592.000000,,,,
11.896000000,3592.000000,,,,
11.900000000,3582.000000,,,,
11.904000000,3570.000000,,,,
11.908000000,3568.000000,,,,
11.912000000,3568.000000,,,,
11.916000000,3564.000000,,,,
11.920000000,3550.000000,933.500000,99.500000,184.000000,
11.924000000,3534.000000,,,,
11.928000000,3524.000000,,,,
11.932000000,3508.000000,,,,
11.936000000,3488.000000,,,,
11.940000000,3468.000000,,,,
11.944000000,3447.000000,,,,
11.948000000,3425.000000,,,,
11.952000000,3402.000000,,,,
11.956000000,3377.000000,,,,
11.960000000,3346.000000,945.000000,115.000000,197.500000,
11.964000000,3313.000000,,,,
11.968000000,3293.000000,,,,
11.972000000,3273.000000,,,,
11.976000000,3257.000000,,,,
11.980000000,3239.000000,,,,
11.984000000,3210.000000,,,,
11.988000000,3187.000000,,,,
11.992000000,3176.000000,,,,
11.996000000,3160.000000,,,,
12.000000000,3143.000000,937.500000,132.500000,178.000000,0.000000
12.004000000,3132.000000,,,,
12.008000000,3122.000000,,,,
12.012000000,3115.000000,,,,
12.016000000,3116.000000,,,,
12.020000000,3115.000000,,,,
12.024000000,3109.000000,,,,
12.028000000,3107.000000,,,,
12.032000000,3107.000000,,,,
12.036000000,3105.000000,,,,
12.040000000,3105.000000,947.000000,115.000000,168.000000,
12.044000000,3100.000000,,,,
12.048000000,3096.000000,,,,
12.052000000,3093.000000,,,,
12.056000000,3094.000000,,,,
12.060000000,3098.000000,,,,
12.064000000,3092.000000,,,,
12.068000000,3078.000000,,,,
12.072000000,3061.000000,,,,
12.076000000,3050.000000,,,,
12.080000000,3047.000000,953.000000,95.500000,158.500000,
12.084000000,3049.000000,,,,
12.088000000,3039.000000,,,,
12.092000000,3027.000000,,,,
12.096000000,3016.000000,,,,
12.100000000,3006.000000,,,,
12.104000000,2999.000000,,,,
12.108000000,2994.000000,,,,
12.112000000,2984.000000,,,,
12.116000000,2973.000000,,,,
12.120000000,2962.000000,962.500000,93.500000,160.500000,
12.124000000,2962.000000,,,,
12.128000000,2959.000000,,,,
12.132000000,2961.000000,,,,
12.136000000,2963.000000,,,,
12.140000000,2961.000000,,,,
12.144000000,2959.000000,,,,
12.148000000,2951.000000,,,,
12.152000000,2946.000000,,,,
12.156000000,2946.000000,,,,
12.160000000,2943.000000,970.500000,97.500000,160.500000,
12.164000000,2939.000000,,,,
12.168000000,2930.000000,,,,
12.172000000,2921.000000,,,,
12.176000000,2918.000000,,,,
12.180000000,2919.000000,,,,
12.184000000,2919.000000,,,,
12.188000000,2918.000000,,,,
12.192000000,2919.000000,,,,
12.196000000,2932.000000,,,,
12.200000000,2939.000000,966.500000,93.500000,160.500000,
12.204000000,2937.000000,,,,
12.208000000,2939.000000,,,,
12.212000000,2939.000000,,,,
12.216000000,2934.000000,,,,
12.220000000,2934.000000,,,,
12.224000000,2932.000000,,,,
12.228000000,2928.000000,,,,
12.232000000,2932.000000,,,,
12.236000000,2932.000000,,,,
12.240000000,2926.000000,964.500000,68.000000,162.500000,
12.244000000,2921.000000,,,,
12.248000000,2921.000000,,,,
12.252000000,2932.000000,,,,
12.256000000,2951.000000,,,,
12.260000000,2974.000000,,,,
12.264000000,3005.000000,,,,
12.268000000,3027.000000,,,,
12.272000000,3049.000000,,,,
12.276000000,3076.000000,,,,
12.280000000,3107.000000,976.500000,44.500000,158.500000,
12.284000000,3123.000000,,,,
12.288000000,3152.000000,,,,
12.292000000,3181.000000,,,,
12.296000000,3173.000000,,,,
12.300000000,3136.000000,,,,
12.304000000,3068.000000,,,,
12.308000000,2998.000000,,,,
12.312000000,2959.000000,,,,
12.316000000,2954.000000,,,,
12.320000000,2946.000000,972.500000,17.500000,238.500000,
12.324000000,2930.000000,,,,
12.328000000,2912.000000,,,,
12.332000000,2892.000000,,,,
12.336000000,2900.000000,,,,
12.340000000,2912.000000,,,,
12.344000000,2893.000000,,,,
12.348000000,2839.000000,,,,
12.352000000,2777.000000,,,,
12.356000000,2731.000000,,,,
12.360000000,2693.000000,935.500000,31.500000,174.000000,
12.364000000,2673.000000,,,,
12.368000000,2670.000000,,,,
12.372000000,2680.000000,,,,
12.376000000,2692.000000,,,,
12.380000000,2714.000000,,,,
12.384000000,2739.000000,,,,
12.388000000,2771.000000,,,,
12.392000000,2804.000000,,,,
12.396000000,2837.000000,,,,
12.400000000,2881.000000,947.000000,23.500000,174.000000,
12.404000000,2958.000000,,,,
12.408000000,3098.000000,,,,
12.412000000,3323.000000,,,,
12.416000000,3640.000000,,,,
12.420000000,3793.000000,,,,
12.424000000,3432.000000,,,,
12.428000000,2761.000000,,,,
12.432000000,2164.000000,,,,
12.436000000,1778.000000,,,,
12.440000000,1585.000000,1011.500000,29.500000,203.500000,
12.444000000,1364.000000,,,,
12.448000000,1154.000000,,,,
12.452000000,1081.000000,,,,
12.456000000,1200.000000,,,,
12.460000000,1486.000000,,,,
12.464000000,1909.000000,,,,
12.468000000,2331.000000,,,,
12.472000000,2700.000000,,,,
12.476000000,2895.000000,,,,
12.480000000,2941.000000,996.000000,31.500000,217.000000,
12.484000000,2940.000000,,,,
12.488000000,2929.000000,,,,
12.492000000,2928.000000,,,,
12.496000000,2930.000000,,,,
12.500000000,2933.000000,,,,
12.504000000,2929.000000,,,,
12.508000000,2918.000000,,,,
12.512000000,2912.000000,,,,
12.516000000,2914.000000,,,,
12.520000000,2919.000000,958.500000,35.500000,232.500000,
12.524000000,2921.000000,,,,
12.528000000,2921.000000,,,,
12.532000000,2918.000000,,,,
12.536000000,2912.000000,,,,
12.540000000,2917.000000,,,,
12.544000000,2930.000000,,,,
12.548000000,2933.000000,,,,
12.552000000,2922.000000,,,,
12.556000000,2911.000000,,,,
12.560000000,2906.000000,949.000000,29.500000,238.500000,
12.564000000,2906.000000,,,,
12.568000000,2906.000000,,,,
12.572000000,2904.000000,,,,
12.576000000,2906.000000,,,,
12.580000000,2914.000000,,,,
12.584000000,2915.000000,,,,
12.588000000,2919.000000,,,,
12.592000000,2929.000000,,,,
12.596000000,2932.000000,,,,
12.600000000,2934.000000,947.000000,55.000000,236.500000,
12.604000000,2941.000000,,,,
12.608000000,2946.000000,,,,
12.612000000,2948.000000,,,,
12.616000000,2947.000000,,,,
12.620000000,2941.000000,,,,
12.624000000,2937.000000,,,,
12.628000000,2932.000000,,,,
12.632000000,2919.000000,,,,
12.636000000,2914.000000,,,,
12.640000000,2897.000000,955.000000,86.000000,242.500000,
12.644000000,2872.000000,,,,
12.648000000,2856.000000,,,,
12.652000000,2839.000000,,,,
12.656000000,2815.000000,,,,
12.660000000,2798.000000,,,,
12.664000000,2782.000000,,,,
12.668000000,2766.000000,,,,
12.672000000,2746.000000,,,,
12.676000000,2725.000000,,,,
12.680000000,2710.000000,947.000000,84.000000,244.500000,
12.684000000,2702.000000,,,,
12.688000000,2691.000000,,,,
12.692000000,2677.000000,,,,
12.696000000,2660.000000,,,,
12.700000000,2647.000000,,,,
12.704000000,2640.000000,,,,
12.708000000,2626.000000,,,,
12.712000000,2615.000000,,,,
12.716000000,2607.000000,,,,
12.720000000,2590.000000,929.500000,82.500000,234.500000,
12.724000000,2578.000000,,,,
12.728000000,2565.000000,,,,
12.732000000,2553.000000,,,,
12.736000000,2543.000000,,,,
12.740000000,2538.000000,,,,
12.744000000,2529.000000,,,,
12.748000000,2516.000000,,,,
12.752000000,2506.000000,,,,
12.756000000,2498.000000,,,,
12.760000000,2492.000000,947.000000,80.500000,225.000000,
12.764000000,2495.000000,,,,
12.768000000,2495.000000,,,,
12.772000000,2488.000000,,,,
12.776000000,2483.000000,,,,
12.780000000,2481.000000,,,,
12.784000000,2487.000000,,,,
12.788000000,2491.000000,,,,
12.792000000,2489.000000,,,,
12.796000000,2478.000000,,,,
12.800000000,2473.000000,890.500000,14.000000,246.500000,
12.804000000,2478.000000,,,,
12.808000000,2511.000000,,,,
12.812000000,2584.000000,,,,
12.816000000,2680.000000,,,,
12.820000000,2764.000000,,,,
12.824000000,2768.000000,,,,
12.828000000,2675.000000,,,,
12.832000000,2534.000000,,,,
12.836000000,2407.000000,,,,
12.840000000,2343.000000,898.000000,33.500000,203.500000,
12.844000000,2321.000000,,,,
12.848000000,2283.000000,,,,
12.852000000,2219.000000,,,,
12.856000000,2166.000000,,,,
12.860000000,2168.000000,,,,
12.864000000,2229.000000,,,,
12.868000000,2299.000000,,,,
12.872000000,2339.000000,,,,
12.876000000,2339.000000,,,,
12.880000000,2339.000000,912.000000,14.000000,215.000000,
12.884000000,2352.000000,,,,
12.888000000,2359.000000,,,,
12.892000000,2356.000000,,,,
12.896000000,2345.000000,,,,
12.900000000,2330.000000,,,,
12.904000000,2320.000000,,,,
12.908000000,2314.000000,,,,
12.912000000,2309.000000,,,,
12.916000000,2295.000000,,,,
12.920000000,2281.000000,951.000000,11.500000,223.000000,
12.924000000,2270.000000,,,,
12.928000000,2258.000000,,,,
12.932000000,2244.000000,,,,
12.936000000,2233.000000,,,,
12.940000000,2228.000000,,,,
12.944000000,2223.000000,,,,
12.948000000,2218.000000,,,,
12.952000000,2222.000000,,,,
12.956000000,2221.000000,,,,
12.960000000,2211.000000,957.000000,3.500000,221.000000,
12.964000000,2219.000000,,,,
12.968000000,2241.000000,,,,
12.972000000,2269.000000,,,,
12.976000000,2298.000000,,,,
12.980000000,2321.000000,,,,
12.984000000,2341.000000,,,,
12.988000000,2354.000000,,,,
12.992000000,2376.000000,,,,
12.996000000,2403.000000,,,,
13.000000000,2426.000000,958.500000,1.500000,230.500000,0.000000
13.004000000,2443.000000,,,,
13.008000000,2458.000000,,,,
13.012000000,2443.000000,,,,
13.016000000,2408.000000,,,,
13.020000000,2363.000000,,,,
13.024000000,2306.000000,,,,
13.028000000,2273.000000,,,,
13.032000000,2265.000000,,,,
13.036000000,2269.000000,,,,
13.040000000,2263.000000,958.500000,3.500000,238.500000,
13.044000000,2230.000000,,,,
13.048000000,2197.000000,,,,
13.052000000,2184.000000,,,,
13.056000000,2181.000000,,,,
13.060000000,2171.000000,,,,
13.064000000,2164.000000,,,,
13.068000000,2163.000000,,,,
13.072000000,2164.000000,,,,
13.076000000,2170.000000,,,,
13.080000000,2171.000000,957.000000,9.500000,238.500000,
13.084000000,2168.000000,,,,
13.088000000,2163.000000,,,,
13.092000000,2166.000000,,,,
13.096000000,2175.000000,,,,
13.100000000,2178.000000,,,,
13.104000000,2171.000000,,,,
13.108000000,2170.000000,,,,
13.112000000,2179.000000,,,,
13.116000000,2199.000000,,,,
13.120000000,2251.000000,957.000000,15.500000,234.500000,
13.124000000,2364.000000,,,,
13.128000000,2549.000000,,,,
13.132000000,2831.000000,,,,
13.136000000,3052.000000,,,,
13.140000000,2921.000000,,,,
13.144000000,2374.000000,,,,
13.148000000,1862.000000,,,,
13.152000000,1380.000000,,,,
13.156000000,1029.000000,,,,
13.160000000,865.000000,960.500000,15.500000,246.500000,
13.164000000,781.000000,,,,
13.168000000,709.000000,,,,
13.172000000,727.000000,,,,
13.176000000,873.000000,,,,
13.180000000,1146.000000,,,,
13.184000000,1492.000000,,,,
13.188000000,1827.000000,,,,
13.192000000,2145.000000,,,,
13.196000000,2327.000000,,,,
13.200000000,2378.000000,955.000000,11.500000,240.500000,
13.204000000,2379.000000,,,,
13.208000000,2376.000000,,,,
13.212000000,2389.000000,,,,
13.216000000,2407.000000,,,,
13.220000000,2422.000000,,,,
13.224000000,2425.000000,,,,
13.228000000,2414.000000,,,,
13.232000000,2404.000000,,,,
13.236000000,2397.000000,,,,
13.240000000,2396.000000,953.000000,17.500000,242.500000,
13.244000000,2404.000000,,,,
13.248000000,2405.000000,,,,
13.252000000,2405.000000,,,,
13.256000000,2405.000000,,,,
13.260000000,2396.000000,,,,
13.264000000,2390.000000,,,,
13.268000000,2401.000000,,,,
13.272000000,2409.000000,,,,
13.276000000,2414.000000,,,,